製品名 ,ワイヤレス筋電センサ（乾式＋加速度） ,,,,,
計測時ID ,12,,,,,
計測開始時刻 ,00/00/00 00:08 ,,,,,
サンプリング周波数 ,1000,,,,,
シーケンス数 ,20000,,,,,
PGAゲイン ,x12 ,,,,,
補正値キー ,FFFFFFFFFFFFFFFFFFFFFFFFFFFFFFFF ,,,,,
コメント , ,,,,,
ファイル保存形式, 演算データ,,,,,
シーケンス番号, EMG01, 加速度X, 加速度Y, 加速度Z ,,
1,0,0.7647,0.0193,-1.3045,,0
2,-0.0251,0.919,0.0578,-1.176,,0.0251
3,0.0122,0.9061,0.0578,-1.1375,,0.0122
4,0.0267,0.9061,0.0578,-1.1632,,0.0267
5,0.0929,0.9061,0.0321,-1.1632,,0.0929
6,0.1654,0.9061,0.0321,-1.1503,,0.1654
7,0.1573,0.8933,0.0193,-1.1503,,0.1573
8,0.1557,0.9061,0.0193,-1.1246,,0.1557
9,0.1181,0.8933,0.0321,-1.1246,,0.1181
10,-0.0015,0.8804,0.0193,-1.1375,,0.0015
11,-0.1834,0.8676,0.0193,-1.1118,,0.1834
12,-0.2342,0.8804,0.0193,-1.1246,,0.2342
13,-0.0743,0.8804,0.0064,-1.1246,,0.0743
14,-0.0177,0.8933,0.0064,-1.1118,,0.0177
15,-0.0094,0.8933,0.0064,-1.1118,,0.0094
16,-0.0198,0.8804,0.0064,-1.086,,0.0198
17,-0.0662,0.8804,0.0064,-1.1118,,0.0662
18,-0.0979,0.9061,0.0064,-1.0603,,0.0979
19,0.0779,0.8804,0.0064,-1.0732,,0.0779
20,0.1242,0.8804,-0.0064,-1.086,,0.1242
21,0.0876,0.8804,0.0064,-1.0989,,0.0876
22,0.036,0.8804,-0.0064,-1.0989,,0.036
23,-0.0913,0.8804,-0.0064,-1.0989,,0.0913
24,-0.0999,0.8547,-0.0064,-1.0732,,0.0999
25,-0.0363,0.8547,-0.0064,-1.0989,,0.0363
26,-0.01,0.8547,-0.0064,-1.0732,,0.01
27,0.0382,0.8547,0.0064,-1.0989,,0.0382
28,-0.0593,0.8418,0.0064,-1.086,,0.0593
29,-0.0098,0.829,0.0064,-1.1118,,0.0098
30,0.0655,0.829,-0.0064,-1.1118,,0.0655
31,0.0936,0.829,0.0064,-1.1118,,0.0936
32,0.084,0.8033,0.0064,-1.086,,0.084
33,0.0319,0.8161,-0.0064,-1.086,,0.0319
34,0.0502,0.7776,0.0064,-1.086,,0.0502
35,0.1039,0.7647,0.0064,-1.0989,,0.1039
36,0.1031,0.7519,0.0064,-1.086,,0.1031
37,0.065,0.7262,0.0193,-1.0732,,0.065
38,0.0177,0.7005,0.0064,-1.0989,,0.0177
39,0.0581,0.6876,0.0193,-1.086,,0.0581
40,-0.0097,0.6619,0.0193,-1.0732,,0.0097
41,-0.032,0.6491,0.045,-1.086,,0.032
42,0.0167,0.6105,0.0321,-1.0603,,0.0167
43,0.0633,0.5848,0.0321,-1.086,,0.0633
44,0.134,0.5591,0.0321,-1.0732,,0.134
45,0.118,0.5462,0.0321,-1.0732,,0.118
46,0.049,0.5205,0.0321,-1.0732,,0.049
47,0.0299,0.4948,0.0321,-1.0603,,0.0299
48,-0.0311,0.4691,0.0193,-1.0346,,0.0311
49,-0.0827,0.4563,0.045,-1.0475,,0.0827
50,-0.2133,0.4306,0.0578,-1.0475,,0.2133
51,-0.2052,0.392,0.0578,-1.0475,,0.2052
52,-0.2383,0.3663,0.045,-1.0346,,0.2383
53,-0.1092,0.3406,0.0578,-1.0218,,0.1092
54,-0.0076,0.3277,0.0578,-1.0346,,0.0076
55,-0.0007,0.302,0.045,-1.0346,,0.0007
56,0.0409,0.2763,0.0578,-1.0346,,0.0409
57,0.0757,0.2635,0.0707,-1.0218,,0.0757
58,0.0605,0.2378,0.045,-1.0218,,0.0605
59,0.0519,0.2121,0.0578,-1.0346,,0.0519
60,0.0629,0.2121,0.0578,-1.0218,,0.0629
61,0.0759,0.2121,0.0578,-1.0346,,0.0759
62,0.0853,0.1992,0.0707,-1.0089,,0.0853
63,0.1184,0.1864,0.045,-1.0218,,0.1184
64,0.1325,0.1864,0.0707,-1.0218,,0.1325
65,0.0505,0.1607,0.0707,-1.0346,,0.0505
66,0.0054,0.1478,0.0707,-1.0218,,0.0054
67,0.0116,0.1478,0.0707,-1.0089,,0.0116
68,0.0393,0.1607,0.0835,-1.0218,,0.0393
69,-0.0313,0.1735,0.0835,-1.0475,,0.0313
70,-0.2197,0.1735,0.0835,-1.0475,,0.2197
71,-0.0953,0.1607,0.0835,-1.0475,,0.0953
72,0.0457,0.1607,0.0835,-1.0475,,0.0457
73,0.1066,0.1607,0.0964,-1.0218,,0.1066
74,0.0801,0.1735,0.0964,-1.0475,,0.0801
75,0.094,0.2121,0.0964,-1.0603,,0.094
76,0.0792,0.2121,0.1092,-1.0603,,0.0792
77,0.0054,0.2378,0.0964,-1.0732,,0.0054
78,0.0543,0.2763,0.1092,-1.0603,,0.0543
79,-0.0676,0.2763,0.1221,-1.086,,0.0676
80,-0.2572,0.2892,0.1221,-1.0603,,0.2572
81,-0.1975,0.3149,0.135,-1.086,,0.1975
82,-0.1162,0.3406,0.135,-1.0989,,0.1162
83,-0.0874,0.3792,0.1478,-1.1375,,0.0874
84,-0.0324,0.392,0.1478,-1.1246,,0.0324
85,-0.0438,0.4306,0.1607,-1.1503,,0.0438
86,0.0182,0.4563,0.1607,-1.1375,,0.0182
87,0.0365,0.482,0.1735,-1.1375,,0.0365
88,0.0708,0.5334,0.1864,-1.1503,,0.0708
89,0.1192,0.5462,0.1992,-1.176,,0.1192
90,0.1645,0.5848,0.2121,-1.1889,,0.1645
91,0.1189,0.6362,0.2249,-1.2017,,0.1189
92,0.1059,0.6876,0.2249,-1.2146,,0.1059
93,0.0745,0.7005,0.2378,-1.2531,,0.0745
94,0.0266,0.739,0.2506,-1.266,,0.0266
95,-0.008,0.7776,0.2763,-1.2531,,0.008
96,-0.123,0.8033,0.2763,-1.2788,,0.123
97,-0.0821,0.8418,0.302,-1.2788,,0.0821
98,-0.0248,0.8547,0.302,-1.3045,,0.0248
99,-0.0585,0.8804,0.3149,-1.3302,,0.0585
100,0.0007,0.919,0.302,-1.3302,,0.0007
101,0.0552,0.9447,0.3149,-1.3431,,0.0552
102,0.0623,0.9447,0.3277,-1.356,,0.0623
103,0.0355,0.9832,0.3277,-1.3945,,0.0355
104,0.0351,0.9961,0.3277,-1.4202,,0.0351
105,0.0001,1.0089,0.3406,-1.4202,,0.0001
106,0.0316,1.0218,0.3534,-1.4331,,0.0316
107,0.0303,1.0346,0.3534,-1.4202,,0.0303
108,-0.0193,1.0475,0.3663,-1.4716,,0.0193
109,-0.0713,1.0475,0.3534,-1.4588,,0.0713
110,-0.1933,1.0603,0.3663,-1.4716,,0.1933
111,-0.1266,1.0732,0.3792,-1.4716,,0.1266
112,-0.0634,1.0732,0.3663,-1.5102,,0.0634
113,-0.0626,1.086,0.3663,-1.4973,,0.0626
114,-0.0286,1.086,0.3663,-1.523,,0.0286
115,-0.0193,1.086,0.3534,-1.5359,,0.0193
116,-0.0078,1.086,0.3534,-1.5487,,0.0078
117,0.02,1.0732,0.3534,-1.5487,,0.02
118,0.0722,1.0989,0.3406,-1.5487,,0.0722
119,0.0778,1.0732,0.3534,-1.5616,,0.0778
120,0.0797,1.0732,0.3406,-1.5616,,0.0797
121,-0.0045,1.0732,0.3534,-1.5616,,0.0045
122,0.0433,1.086,0.3277,-1.5873,,0.0433
123,0.0699,1.0732,0.3277,-1.5744,,0.0699
124,0.0643,1.0475,0.3277,-1.5744,,0.0643
125,0.0398,1.0475,0.3149,-1.5873,,0.0398
126,0.0549,1.0475,0.3149,-1.5744,,0.0549
127,0.0796,1.0346,0.3277,-1.5616,,0.0796
128,0.1185,1.0346,0.3149,-1.5873,,0.1185
129,0.1228,1.0346,0.3149,-1.613,,0.1228
130,0.1444,1.0089,0.302,-1.6259,,0.1444
131,0.1192,1.0089,0.302,-1.6002,,0.1192
132,0.1315,1.0089,0.2892,-1.613,,0.1315
133,0.1396,1.0089,0.2892,-1.6002,,0.1396
134,0.1374,0.9832,0.2892,-1.6002,,0.1374
135,0.0679,0.9575,0.2892,-1.613,,0.0679
136,0.0009,0.9575,0.2892,-1.6002,,0.0009
137,-0.0566,0.9318,0.2763,-1.5873,,0.0566
138,-0.0687,0.9447,0.2763,-1.5744,,0.0687
139,-0.0704,0.9318,0.2763,-1.6002,,0.0704
140,-0.0772,0.919,0.2763,-1.5873,,0.0772
141,-0.0634,0.919,0.2635,-1.5616,,0.0634
142,-0.0273,0.9061,0.2763,-1.5487,,0.0273
143,-0.0219,0.8933,0.2892,-1.5487,,0.0219
144,-0.0643,0.8804,0.2763,-1.5487,,0.0643
145,-0.029,0.8804,0.2892,-1.5359,,0.029
146,-0.0112,0.8676,0.2763,-1.5359,,0.0112
147,0.0215,0.8676,0.2763,-1.523,,0.0215
148,0.0013,0.8547,0.2763,-1.523,,0.0013
149,0.0073,0.8418,0.2763,-1.523,,0.0073
150,0.0231,0.829,0.2763,-1.4973,,0.0231
151,0.0719,0.829,0.2763,-1.4973,,0.0719
152,0.1025,0.8161,0.2892,-1.4973,,0.1025
153,0.1247,0.8161,0.2892,-1.5102,,0.1247
154,0.1274,0.8033,0.2892,-1.5102,,0.1274
155,0.1435,0.8161,0.2892,-1.4973,,0.1435
156,0.1738,0.7904,0.2892,-1.4845,,0.1738
157,0.1632,0.7776,0.3149,-1.4845,,0.1632
158,0.1077,0.7776,0.302,-1.4588,,0.1077
159,0.0716,0.7776,0.302,-1.4588,,0.0716
160,0.0346,0.7776,0.302,-1.4588,,0.0346
161,0.0129,0.7647,0.302,-1.4459,,0.0129
162,-0.0382,0.7647,0.302,-1.4202,,0.0382
163,-0.0668,0.7519,0.302,-1.4331,,0.0668
164,-0.102,0.7647,0.302,-1.4331,,0.102
165,-0.1001,0.739,0.302,-1.3945,,0.1001
166,-0.1455,0.739,0.3149,-1.3945,,0.1455
167,-0.1712,0.739,0.3149,-1.3945,,0.1712
168,-0.18,0.7519,0.3277,-1.3688,,0.18
169,-0.1576,0.7519,0.3277,-1.3817,,0.1576
170,-0.0669,0.7519,0.3149,-1.3817,,0.0669
171,0.0015,0.7519,0.3149,-1.3688,,0.0015
172,0.0654,0.7647,0.3277,-1.356,,0.0654
173,0.0655,0.7647,0.3406,-1.3174,,0.0655
174,0.0089,0.7519,0.3277,-1.3302,,0.0089
175,0.0179,0.7647,0.3277,-1.3431,,0.0179
176,0.0594,0.7647,0.3277,-1.3431,,0.0594
177,0.1054,0.7904,0.3277,-1.3174,,0.1054
178,0.1508,0.7904,0.3149,-1.3174,,0.1508
179,0.1992,0.7776,0.3149,-1.3302,,0.1992
180,0.1756,0.7904,0.3406,-1.3302,,0.1756
181,0.1833,0.7776,0.3406,-1.3045,,0.1833
182,0.085,0.7776,0.3277,-1.3174,,0.085
183,0.0031,0.7904,0.3277,-1.3045,,0.0031
184,0.0049,0.7904,0.3277,-1.2917,,0.0049
185,-0.0691,0.8033,0.3277,-1.3174,,0.0691
186,-0.0664,0.8161,0.3406,-1.3045,,0.0664
187,-0.1583,0.8161,0.3277,-1.3045,,0.1583
188,-0.1858,0.8547,0.3406,-1.3045,,0.1858
189,-0.1836,0.829,0.3277,-1.2788,,0.1836
190,-0.0915,0.8418,0.3406,-1.266,,0.0915
191,0.0444,0.829,0.3277,-1.2788,,0.0444
192,0.0918,0.8418,0.3277,-1.2917,,0.0918
193,0.0423,0.8547,0.3149,-1.3045,,0.0423
194,0.0551,0.8418,0.3149,-1.266,,0.0551
195,-0.0191,0.8418,0.3277,-1.2788,,0.0191
196,-0.2583,0.8418,0.3277,-1.266,,0.2583
197,-0.3559,0.8418,0.3149,-1.2788,,0.3559
198,-0.1672,0.8418,0.3149,-1.2917,,0.1672
199,0.0924,0.8547,0.3149,-1.2917,,0.0924
200,0.1972,0.8547,0.3149,-1.2788,,0.1972
201,0.241,0.8418,0.302,-1.2788,,0.241
202,0.2518,0.8547,0.3149,-1.2788,,0.2518
203,0.2149,0.8547,0.3149,-1.266,,0.2149
204,0.2449,0.8418,0.3277,-1.2917,,0.2449
205,0.1291,0.8418,0.3277,-1.266,,0.1291
206,0.0644,0.829,0.3277,-1.266,,0.0644
207,-0.0583,0.8418,0.3277,-1.266,,0.0583
208,-0.1896,0.8161,0.3277,-1.266,,0.1896
209,-0.1427,0.8033,0.3277,-1.2403,,0.1427
210,-0.0697,0.8033,0.3277,-1.2403,,0.0697
211,-0.072,0.7776,0.3277,-1.2403,,0.072
212,-0.05,0.7647,0.3149,-1.266,,0.05
213,-0.0473,0.7647,0.3277,-1.2274,,0.0473
214,-0.0445,0.7519,0.3149,-1.2531,,0.0445
215,-0.0907,0.7519,0.3149,-1.2531,,0.0907
216,-0.1641,0.7262,0.3149,-1.2403,,0.1641
217,-0.1338,0.7262,0.3149,-1.266,,0.1338
218,-0.0302,0.739,0.302,-1.2403,,0.0302
219,0.082,0.7262,0.302,-1.2274,,0.082
220,0.1279,0.7133,0.302,-1.2274,,0.1279
221,0.1737,0.7005,0.302,-1.2274,,0.1737
222,0.1543,0.7005,0.3149,-1.2274,,0.1543
223,0.1105,0.7005,0.2892,-1.266,,0.1105
224,0.0713,0.6876,0.2892,-1.2274,,0.0713
225,0.0743,0.6876,0.2892,-1.2403,,0.0743
226,0.0627,0.6876,0.2892,-1.2146,,0.0627
227,0.0355,0.6876,0.2892,-1.2403,,0.0355
228,0.0126,0.6748,0.2763,-1.2403,,0.0126
229,0.0404,0.6876,0.2892,-1.2274,,0.0404
230,0.0906,0.6619,0.2635,-1.176,,0.0906
231,0.1698,0.6876,0.2763,-1.2017,,0.1698
232,0.1644,0.6748,0.2635,-1.1889,,0.1644
233,0.0949,0.7005,0.2635,-1.2017,,0.0949
234,0.0442,0.6876,0.2635,-1.176,,0.0442
235,0.0129,0.6876,0.2892,-1.1889,,0.0129
236,-0.0511,0.7133,0.2763,-1.1889,,0.0511
237,-0.0661,0.7133,0.2892,-1.2146,,0.0661
238,-0.0488,0.7262,0.2763,-1.2017,,0.0488
239,0.007,0.739,0.2763,-1.2017,,0.007
240,0.0397,0.739,0.2763,-1.2017,,0.0397
241,0.0364,0.7519,0.2892,-1.2017,,0.0364
242,0.0253,0.7519,0.2763,-1.1889,,0.0253
243,0.1096,0.7647,0.2763,-1.2017,,0.1096
244,0.2167,0.7776,0.2763,-1.1889,,0.2167
245,0.2187,0.7904,0.2763,-1.176,,0.2187
246,0.1072,0.7904,0.2763,-1.176,,0.1072
247,-0.0081,0.8161,0.2635,-1.176,,0.0081
248,-0.0428,0.829,0.2635,-1.1889,,0.0428
249,-0.1079,0.829,0.2635,-1.176,,0.1079
250,-0.0699,0.8418,0.2763,-1.1503,,0.0699
251,-0.0631,0.8418,0.2635,-1.1375,,0.0631
252,-0.0782,0.8547,0.2635,-1.1503,,0.0782
253,-0.096,0.8676,0.2635,-1.176,,0.096
254,-0.1429,0.8676,0.2635,-1.1375,,0.1429
255,-0.1767,0.8804,0.2635,-1.1503,,0.1767
256,-0.183,0.8933,0.2635,-1.1246,,0.183
257,-0.1507,0.8933,0.2635,-1.1375,,0.1507
258,-0.177,0.8933,0.2635,-1.1118,,0.177
259,-0.1708,0.8933,0.2506,-1.1246,,0.1708
260,-0.1203,0.9061,0.2506,-1.1246,,0.1203
261,-0.0384,0.9061,0.2635,-1.1246,,0.0384
262,-0.0445,0.919,0.2506,-1.1246,,0.0445
263,-0.0401,0.9575,0.2506,-1.1246,,0.0401
264,-0.0261,0.9447,0.2506,-1.1246,,0.0261
265,-0.0206,0.9318,0.2378,-1.0989,,0.0206
266,-0.018,0.9447,0.2635,-1.0732,,0.018
267,-0.0307,0.9447,0.2378,-1.0732,,0.0307
268,0.0457,0.9575,0.2506,-1.086,,0.0457
269,0.131,0.9575,0.2378,-1.086,,0.131
270,0.2405,0.9575,0.2378,-1.086,,0.2405
271,0.2994,0.9575,0.2249,-1.0603,,0.2994
272,0.311,0.9447,0.2378,-1.0732,,0.311
273,0.2928,0.9318,0.2249,-1.0603,,0.2928
274,0.3104,0.9318,0.2249,-1.0732,,0.3104
275,0.2485,0.9318,0.2249,-1.0603,,0.2485
276,0.0876,0.9318,0.2249,-1.0732,,0.0876
277,0.0207,0.9447,0.2249,-1.086,,0.0207
278,0.02,0.9575,0.1992,-1.0732,,0.02
279,-0.0204,0.9318,0.1864,-1.0732,,0.0204
280,-0.1315,0.9318,0.1992,-1.0732,,0.1315
281,-0.0823,0.9318,0.1992,-1.0989,,0.0823
282,-0.0593,0.919,0.2121,-1.0989,,0.0593
283,-0.0056,0.9061,0.1864,-1.0732,,0.0056
284,-0.0144,0.9061,0.1864,-1.0732,,0.0144
285,-0.0368,0.9061,0.1607,-1.086,,0.0368
286,0.0012,0.8933,0.1478,-1.0732,,0.0012
287,0.0259,0.8933,0.1607,-1.086,,0.0259
288,0.0965,0.919,0.1478,-1.086,,0.0965
289,0.1585,0.8933,0.1478,-1.086,,0.1585
290,0.0683,0.8676,0.135,-1.1118,,0.0683
291,0.0343,0.8676,0.1221,-1.1118,,0.0343
292,-0.0171,0.8804,0.1221,-1.1118,,0.0171
293,-0.0503,0.8804,0.135,-1.086,,0.0503
294,-0.0902,0.8676,0.1092,-1.1118,,0.0902
295,-0.1328,0.8804,0.1092,-1.1118,,0.1328
296,-0.1451,0.8676,0.1092,-1.1118,,0.1451
297,-0.1416,0.8676,0.1221,-1.1118,,0.1416
298,-0.1015,0.8804,0.1221,-1.1246,,0.1015
299,-0.0968,0.8804,0.1221,-1.1503,,0.0968
300,-0.0636,0.8804,0.1221,-1.1632,,0.0636
301,-0.0357,0.8804,0.1221,-1.176,,0.0357
302,-0.0047,0.9061,0.135,-1.2017,,0.0047
303,0.049,0.9061,0.135,-1.2017,,0.049
304,0.135,0.8933,0.135,-1.2274,,0.135
305,0.1554,0.8933,0.1478,-1.2274,,0.1554
306,0.1485,0.9061,0.1607,-1.2403,,0.1485
307,0.1931,0.9061,0.1735,-1.2788,,0.1931
308,0.2072,0.9447,0.1735,-1.2917,,0.2072
309,0.1482,0.9447,0.1864,-1.2917,,0.1482
310,0.0661,0.9704,0.1992,-1.3174,,0.0661
311,0.0489,0.9575,0.1992,-1.3174,,0.0489
312,0.04,0.9704,0.2121,-1.3045,,0.04
313,0.0074,0.9961,0.2249,-1.3045,,0.0074
314,-0.0475,1.0089,0.2378,-1.3045,,0.0475
315,-0.1187,1.0089,0.2249,-1.2788,,0.1187
316,-0.1537,1.0346,0.2378,-1.2917,,0.1537
317,-0.1375,1.0475,0.2249,-1.2788,,0.1375
318,-0.1907,1.0603,0.2378,-1.2403,,0.1907
319,-0.1863,1.0475,0.2249,-1.2403,,0.1863
320,-0.1395,1.0475,0.2378,-1.1889,,0.1395
321,-0.1332,1.0475,0.2249,-1.176,,0.1332
322,-0.1009,1.0603,0.2121,-1.1503,,0.1009
323,-0.0481,1.0732,0.2121,-1.1246,,0.0481
324,0.0041,1.086,0.1992,-1.1118,,0.0041
325,0.0434,1.0732,0.1864,-1.086,,0.0434
326,0.1211,1.0732,0.1735,-1.0475,,0.1211
327,0.1436,1.0732,0.1864,-1.0603,,0.1436
328,0.1198,1.0732,0.1735,-1.0089,,0.1198
329,0.0457,1.086,0.1735,-0.9961,,0.0457
330,-0.0589,1.086,0.1607,-0.9961,,0.0589
331,-0.0281,1.0732,0.1478,-0.9832,,0.0281
332,0.1757,1.086,0.135,-1.0089,,0.1757
333,0.2343,1.0989,0.1221,-1.0346,,0.2343
334,0.1033,1.1246,0.1221,-1.0603,,0.1033
335,-0.0357,1.1118,0.1221,-1.086,,0.0357
336,-0.0237,1.1118,0.1092,-1.1118,,0.0237
337,-0.0464,1.1246,0.1092,-1.1375,,0.0464
338,-0.1576,1.1503,0.0964,-1.1632,,0.1576
339,-0.1936,1.1375,0.0835,-1.2017,,0.1936
340,-0.1001,1.1632,0.0964,-1.2017,,0.1001
341,-0.0012,1.1632,0.0964,-1.2146,,0.0012
342,0.1258,1.1632,0.1092,-1.2017,,0.1258
343,0.2074,1.1503,0.1221,-1.1889,,0.2074
344,0.1335,1.1503,0.1221,-1.1632,,0.1335
345,0.0009,1.176,0.1221,-1.1503,,0.0009
346,-0.0435,1.1632,0.1221,-1.1375,,0.0435
347,-0.066,1.1632,0.1478,-1.0989,,0.066
348,-0.0832,1.1889,0.135,-1.1118,,0.0832
349,-0.0957,1.2017,0.1607,-1.086,,0.0957
350,-0.1167,1.1632,0.1607,-1.0732,,0.1167
351,-0.1292,1.176,0.1735,-1.086,,0.1292
352,-0.1053,1.176,0.1864,-1.1118,,0.1053
353,-0.1076,1.176,0.1864,-1.0732,,0.1076
354,-0.0204,1.1889,0.1992,-1.0989,,0.0204
355,0.051,1.176,0.2121,-1.0989,,0.051
356,0.0819,1.1889,0.2121,-1.1118,,0.0819
357,0.1323,1.1889,0.2121,-1.0989,,0.1323
358,0.2045,1.176,0.2121,-1.1118,,0.2045
359,0.2282,1.176,0.2249,-1.0989,,0.2282
360,0.2712,1.1632,0.2121,-1.086,,0.2712
361,0.2079,1.1632,0.2121,-1.086,,0.2079
362,0.1039,1.1503,0.2121,-1.086,,0.1039
363,0.0386,1.1118,0.1992,-1.0989,,0.0386
364,0.0475,1.1503,0.1864,-1.0603,,0.0475
365,0.0675,1.1118,0.1735,-1.086,,0.0675
366,0.0124,1.086,0.1735,-1.0475,,0.0124
367,-0.0053,1.0989,0.1607,-1.0218,,0.0053
368,-0.0561,1.0989,0.1478,-1.0475,,0.0561
369,-0.0924,1.086,0.1478,-1.0346,,0.0924
370,-0.1097,1.0732,0.135,-1.0218,,0.1097
371,-0.083,1.0603,0.135,-1.0089,,0.083
372,-0.0468,1.0603,0.1221,-0.9961,,0.0468
373,-0.0335,1.0346,0.1221,-1.0089,,0.0335
374,-0.0694,1.0346,0.1221,-1.0089,,0.0694
375,-0.068,1.0089,0.1221,-1.0089,,0.068
376,-0.0228,1.0089,0.1221,-0.9961,,0.0228
377,0.0009,0.9961,0.1221,-0.9961,,0.0009
378,0.1159,0.9704,0.1092,-1.0218,,0.1159
379,0.2097,0.9832,0.0964,-1.0218,,0.2097
380,0.1619,0.9704,0.1221,-0.9832,,0.1619
381,0.0667,0.9447,0.0964,-0.9961,,0.0667
382,-0.0103,0.9318,0.1092,-1.0089,,0.0103
383,-0.0576,0.8933,0.1092,-1.0089,,0.0576
384,-0.0549,0.8933,0.1221,-1.0346,,0.0549
385,-0.0286,0.8804,0.1092,-1.0346,,0.0286
386,0.0096,0.8676,0.0964,-1.0346,,0.0096
387,0.0028,0.8418,0.0964,-1.0603,,0.0028
388,0.0107,0.8547,0.0964,-1.0346,,0.0107
389,0.0372,0.829,0.0835,-1.0346,,0.0372
390,0.049,0.8161,0.0964,-1.0475,,0.049
391,0.0134,0.8033,0.0964,-1.0346,,0.0134
392,-0.0616,0.8033,0.1092,-1.0603,,0.0616
393,-0.1349,0.7776,0.1092,-1.086,,0.1349
394,-0.1495,0.7519,0.0964,-1.0732,,0.1495
395,-0.031,0.7647,0.0835,-1.086,,0.031
396,0.0402,0.7519,0.0835,-1.086,,0.0402
397,0.0404,0.7133,0.0964,-1.0732,,0.0404
398,0.0144,0.7005,0.0964,-1.086,,0.0144
399,0.0525,0.7005,0.0964,-1.086,,0.0525
400,0.0654,0.7005,0.0964,-1.086,,0.0654
401,0.0243,0.7005,0.1092,-1.086,,0.0243
402,-0.0461,0.7005,0.0964,-1.0732,,0.0461
403,-0.065,0.7005,0.0964,-1.0989,,0.065
404,-0.0094,0.6619,0.1092,-1.1118,,0.0094
405,0.075,0.6619,0.1092,-1.086,,0.075
406,0.0843,0.6748,0.1221,-1.0732,,0.0843
407,0.065,0.6748,0.1221,-1.0989,,0.065
408,0.0292,0.6876,0.1221,-1.0989,,0.0292
409,0.0274,0.6619,0.1221,-1.1118,,0.0274
410,0.0582,0.6748,0.1092,-1.0732,,0.0582
411,0.0667,0.6619,0.1221,-1.086,,0.0667
412,0.0675,0.6619,0.1221,-1.0989,,0.0675
413,0.069,0.6619,0.135,-1.086,,0.069
414,0.1416,0.6619,0.135,-1.0989,,0.1416
415,0.1291,0.6748,0.135,-1.0989,,0.1291
416,0.1258,0.6876,0.135,-1.086,,0.1258
417,0.0587,0.7005,0.135,-1.1118,,0.0587
418,-0.0131,0.739,0.135,-1.086,,0.0131
419,-0.0856,0.739,0.135,-1.1118,,0.0856
420,-0.1562,0.7262,0.1607,-1.0989,,0.1562
421,-0.2052,0.7519,0.1478,-1.1118,,0.2052
422,-0.2599,0.7519,0.1607,-1.1246,,0.2599
423,-0.2235,0.7647,0.1607,-1.0989,,0.2235
424,-0.1958,0.7904,0.1607,-1.1246,,0.1958
425,-0.1345,0.7904,0.1478,-1.1118,,0.1345
426,0.0631,0.829,0.1607,-1.1375,,0.0631
427,0.2499,0.8161,0.1607,-1.1375,,0.2499
428,0.3631,0.829,0.1607,-1.1246,,0.3631
429,0.3206,0.8161,0.1607,-1.1375,,0.3206
430,0.2243,0.8676,0.1735,-1.1632,,0.2243
431,0.1763,0.8804,0.1607,-1.1503,,0.1763
432,0.1742,0.8804,0.1478,-1.176,,0.1742
433,0.2074,0.919,0.1607,-1.1632,,0.2074
434,0.1141,0.9061,0.1478,-1.1889,,0.1141
435,0.0142,0.919,0.1478,-1.1632,,0.0142
436,-0.013,0.9318,0.1735,-1.2017,,0.013
437,-0.0272,0.9447,0.1607,-1.2017,,0.0272
438,-0.0666,0.9447,0.1735,-1.2017,,0.0666
439,-0.0946,0.9447,0.1607,-1.2146,,0.0946
440,-0.2159,0.9575,0.1735,-1.2274,,0.2159
441,-0.2791,0.9704,0.1607,-1.2274,,0.2791
442,-0.1878,0.9575,0.1607,-1.2274,,0.1878
443,-0.1346,0.9575,0.1735,-1.2531,,0.1346
444,-0.1019,0.9704,0.1607,-1.2531,,0.1019
445,-0.0902,0.9704,0.1735,-1.2274,,0.0902
446,-0.0296,0.9961,0.1607,-1.2403,,0.0296
447,0.0394,0.9704,0.1735,-1.2274,,0.0394
448,-0.0171,1.0475,0.135,-1.2531,,0.0171
449,0.0438,1.0218,0.1607,-1.2403,,0.0438
450,0.0948,1.0218,0.1478,-1.2403,,0.0948
451,0.0895,1.0346,0.1478,-1.2146,,0.0895
452,0.0921,1.0346,0.1607,-1.2017,,0.0921
453,0.2079,1.0346,0.1607,-1.2146,,0.2079
454,0.2495,1.0475,0.1607,-1.2274,,0.2495
455,0.22,1.0475,0.1478,-1.2146,,0.22
456,0.124,1.0346,0.1478,-1.2274,,0.124
457,0.0655,1.0603,0.1478,-1.2274,,0.0655
458,-0.0023,1.0603,0.1478,-1.2146,,0.0023
459,-0.0792,1.0475,0.135,-1.2274,,0.0792
460,-0.0614,1.0475,0.135,-1.2274,,0.0614
461,0.0018,1.0218,0.135,-1.2403,,0.0018
462,0.099,1.0603,0.1221,-1.2403,,0.099
463,0.1682,1.0732,0.1221,-1.2531,,0.1682
464,0.1904,1.0603,0.1092,-1.266,,0.1904
465,0.1323,1.0603,0.1092,-1.2917,,0.1323
466,-0.0087,1.0732,0.0964,-1.266,,0.0087
467,-0.1148,1.086,0.1092,-1.266,,0.1148
468,-0.1456,1.0989,0.1092,-1.2788,,0.1456
469,-0.1938,1.0989,0.0835,-1.2788,,0.1938
470,-0.1817,1.0989,0.0964,-1.2788,,0.1817
471,-0.1404,1.1118,0.0835,-1.3045,,0.1404
472,-0.1124,1.0989,0.0707,-1.2917,,0.1124
473,-0.1442,1.1246,0.0578,-1.2917,,0.1442
474,-0.0977,1.0989,0.0578,-1.3045,,0.0977
475,-0.0179,1.086,0.0578,-1.2917,,0.0179
476,-0.1301,1.086,0.045,-1.2917,,0.1301
477,-0.1898,1.086,0.0578,-1.3174,,0.1898
478,-0.1789,1.1118,0.045,-1.3174,,0.1789
479,0.0235,1.0989,0.045,-1.3174,,0.0235
480,0.1584,1.0989,0.045,-1.3045,,0.1584
481,0.243,1.0989,0.045,-1.3045,,0.243
482,0.3599,1.086,0.0321,-1.2788,,0.3599
483,0.3563,1.086,0.0321,-1.2917,,0.3563
484,0.2226,1.086,0.0321,-1.2788,,0.2226
485,0.1698,1.0732,0.0321,-1.2917,,0.1698
486,0.2246,1.0603,0.0193,-1.3045,,0.2246
487,0.1833,1.0475,0.0193,-1.3045,,0.1833
488,0.136,1.0732,0.0193,-1.2917,,0.136
489,0.1614,1.0603,0.0064,-1.2788,,0.1614
490,0.0966,1.0218,0.0193,-1.3045,,0.0966
491,0.0464,1.0218,0.0321,-1.3045,,0.0464
492,0.0032,0.9832,0.0064,-1.3302,,0.0032
493,0.0215,0.9961,0.0064,-1.3302,,0.0215
494,0.0647,0.9832,0.0064,-1.3045,,0.0647
495,0.0544,0.9832,0.0064,-1.3302,,0.0544
496,-0.0209,0.9832,0.0064,-1.3302,,0.0209
497,-0.1137,0.9447,0.0064,-1.3174,,0.1137
498,-0.1931,0.9318,0.0064,-1.3045,,0.1931
499,-0.2125,0.9318,0.0064,-1.3174,,0.2125
500,-0.244,0.9318,0.0064,-1.3045,,0.244
501,-0.3158,0.9318,0.0064,-1.3045,,0.3158
502,-0.3607,0.919,0.0193,-1.3302,,0.3607
503,-0.3451,0.9704,0.0193,-1.3045,,0.3451
504,-0.3027,0.919,0.0193,-1.2917,,0.3027
505,-0.2017,0.919,0.045,-1.2788,,0.2017
506,-0.0646,0.9061,0.0578,-1.2788,,0.0646
507,0.0159,0.8933,0.045,-1.266,,0.0159
508,-0.0026,0.8804,0.0578,-1.266,,0.0026
509,0.0197,0.8804,0.0578,-1.2274,,0.0197
510,0.1226,0.8804,0.0707,-1.2146,,0.1226
511,0.2402,0.8804,0.0707,-1.2146,,0.2402
512,0.5547,0.8547,0.0578,-1.2017,,0.5547
513,0.5353,0.8676,0.0578,-1.176,,0.5353
514,0.3824,0.8418,0.0707,-1.176,,0.3824
515,0.3262,0.8161,0.0707,-1.176,,0.3262
516,0.0495,0.7647,0.0835,-1.176,,0.0495
517,-0.0382,0.7133,0.0707,-1.2146,,0.0382
518,0.0823,0.739,0.0578,-1.1632,,0.0823
519,0.2061,0.7647,0.0064,-1.176,,0.2061
520,0.2542,0.829,-0.0064,-1.176,,0.2542
521,0.1955,0.8547,-0.0064,-1.2146,,0.1955
522,0.1556,0.8804,0.0064,-1.2146,,0.1556
523,0.0591,0.8804,0.0193,-1.2531,,0.0591
524,-0.0451,0.8804,0.045,-1.2531,,0.0451
525,-0.143,0.8804,0.0707,-1.2788,,0.143
526,-0.1935,0.8547,0.0835,-1.2917,,0.1935
527,-0.2057,0.8676,0.0835,-1.2788,,0.2057
528,-0.1788,0.8547,0.0835,-1.2917,,0.1788
529,-0.1451,0.8547,0.0964,-1.2917,,0.1451
530,-0.1391,0.8418,0.1221,-1.3045,,0.1391
531,-0.1462,0.829,0.1092,-1.2788,,0.1462
532,-0.1009,0.8161,0.0964,-1.3045,,0.1009
533,-0.0303,0.8676,0.1092,-1.2917,,0.0303
534,0.013,0.8418,0.1092,-1.2917,,0.013
535,0.0256,0.8418,0.1092,-1.3045,,0.0256
536,0.0365,0.829,0.0964,-1.2917,,0.0365
537,-0.0145,0.8033,0.1092,-1.266,,0.0145
538,-0.1312,0.8033,0.1092,-1.2403,,0.1312
539,-0.2145,0.8033,0.0964,-1.266,,0.2145
540,-0.2983,0.8033,0.0964,-1.2274,,0.2983
541,-0.3291,0.7776,0.0964,-1.2146,,0.3291
542,-0.3187,0.7776,0.0964,-1.1889,,0.3187
543,-0.3205,0.7776,0.0964,-1.2017,,0.3205
544,0.0302,0.7776,0.0964,-1.176,,0.0302
545,0.5313,0.7776,0.0835,-1.1632,,0.5313
546,0.7168,0.7776,0.0835,-1.1632,,0.7168
547,0.7614,0.7776,0.0707,-1.1889,,0.7614
548,0.6282,0.7904,0.0835,-1.1503,,0.6282
549,0.4009,0.7904,0.0578,-1.1503,,0.4009
550,0.2394,0.7904,0.0578,-1.176,,0.2394
551,0.1504,0.7904,0.045,-1.176,,0.1504
552,0.0866,0.7776,0.045,-1.176,,0.0866
553,-0.0068,0.7647,0.045,-1.1889,,0.0068
554,-0.0944,0.7647,0.045,-1.2017,,0.0944
555,-0.2444,0.7776,0.0321,-1.2146,,0.2444
556,-0.2528,0.7776,0.045,-1.2403,,0.2528
557,-0.3247,0.7904,0.0321,-1.2403,,0.3247
558,-0.3422,0.7904,0.0193,-1.2917,,0.3422
559,-0.2734,0.8033,0.0193,-1.2917,,0.2734
560,-0.2774,0.8161,0.0321,-1.3045,,0.2774
561,-0.2953,0.7776,0.0321,-1.2788,,0.2953
562,-0.2903,0.7904,0.0578,-1.3045,,0.2903
563,0.0045,0.7904,0.0707,-1.3045,,0.0045
564,0.2433,0.7904,0.0707,-1.3045,,0.2433
565,0.4009,0.8033,0.0835,-1.3045,,0.4009
566,0.1925,0.7904,0.0707,-1.3302,,0.1925
567,0.1305,0.7776,0.0835,-1.2788,,0.1305
568,0.3253,0.7776,0.0835,-1.3045,,0.3253
569,0.4407,0.7904,0.0964,-1.2788,,0.4407
570,0.3393,0.7776,0.0835,-1.2917,,0.3393
571,0.2162,0.7647,0.0964,-1.266,,0.2162
572,0.1567,0.7904,0.0835,-1.2788,,0.1567
573,0.09,0.8033,0.0578,-1.266,,0.09
574,0.0149,0.7904,0.0707,-1.2788,,0.0149
575,-0.0545,0.7776,0.0835,-1.2788,,0.0545
576,-0.1119,0.7904,0.0707,-1.266,,0.1119
577,-0.1164,0.7904,0.0835,-1.2788,,0.1164
578,-0.1356,0.8033,0.0835,-1.3045,,0.1356
579,-0.1514,0.7904,0.0835,-1.3174,,0.1514
580,-0.1331,0.7904,0.0707,-1.2917,,0.1331
581,-0.1118,0.7904,0.0578,-1.2917,,0.1118
582,-0.0297,0.8033,0.0707,-1.2788,,0.0297
583,0.0325,0.8033,0.0707,-1.2917,,0.0325
584,0.0737,0.8033,0.0835,-1.3045,,0.0737
585,0.1521,0.7904,0.0835,-1.3302,,0.1521
586,0.2056,0.7904,0.0707,-1.2917,,0.2056
587,0.0801,0.7904,0.0707,-1.3174,,0.0801
588,0.0398,0.8033,0.0835,-1.3174,,0.0398
589,-0.0799,0.7904,0.0835,-1.3045,,0.0799
590,-0.1452,0.7776,0.0835,-1.2917,,0.1452
591,-0.2167,0.7904,0.0835,-1.3045,,0.2167
592,-0.2511,0.7904,0.0835,-1.2788,,0.2511
593,-0.1945,0.7776,0.0707,-1.3045,,0.1945
594,-0.0038,0.7904,0.0835,-1.3174,,0.0038
595,0.0877,0.7904,0.0707,-1.3302,,0.0877
596,0.157,0.7776,0.0707,-1.3302,,0.157
597,0.2309,0.7776,0.0578,-1.3431,,0.2309
598,0.2097,0.7776,0.0707,-1.3174,,0.2097
599,0.0958,0.7776,0.0707,-1.3302,,0.0958
600,0.0655,0.8033,0.0835,-1.356,,0.0655
601,0.0138,0.8033,0.0578,-1.356,,0.0138
602,0.0225,0.8033,0.0707,-1.3817,,0.0225
603,0.0576,0.829,0.0578,-1.356,,0.0576
604,-0.0508,0.8161,0.045,-1.356,,0.0508
605,-0.0849,0.7904,0.0578,-1.3688,,0.0849
606,-0.0859,0.8033,0.0578,-1.356,,0.0859
607,-0.0091,0.8033,0.0707,-1.356,,0.0091
608,-0.0097,0.829,0.0707,-1.356,,0.0097
609,-0.0848,0.8161,0.0578,-1.356,,0.0848
610,0.0755,0.8161,0.045,-1.3431,,0.0755
611,0.0283,0.8161,0.045,-1.3688,,0.0283
612,-0.1156,0.8161,0.0578,-1.3431,,0.1156
613,-0.1076,0.829,0.045,-1.356,,0.1076
614,-0.0253,0.829,0.0578,-1.356,,0.0253
615,0.0085,0.8161,0.045,-1.3431,,0.0085
616,0.0226,0.8161,0.0578,-1.3688,,0.0226
617,0.2412,0.8033,0.0578,-1.3688,,0.2412
618,0.4477,0.829,0.045,-1.3817,,0.4477
619,0.3489,0.829,0.045,-1.3688,,0.3489
620,0.168,0.8161,0.0578,-1.3945,,0.168
621,0.1135,0.8161,0.045,-1.3688,,0.1135
622,0.0437,0.8161,0.045,-1.356,,0.0437
623,-0.0035,0.8161,0.0578,-1.3431,,0.0035
624,-0.0151,0.8033,0.045,-1.356,,0.0151
625,-0.0086,0.8161,0.045,-1.356,,0.0086
626,-0.0028,0.8033,0.045,-1.3431,,0.0028
627,-0.0615,0.8161,0.045,-1.356,,0.0615
628,-0.1562,0.8033,0.045,-1.3688,,0.1562
629,-0.1087,0.8033,0.0578,-1.4074,,0.1087
630,0.1398,0.7904,0.0578,-1.3945,,0.1398
631,0.2928,0.7904,0.0578,-1.3817,,0.2928
632,0.0875,0.7776,0.0707,-1.4074,,0.0875
633,-0.09,0.7904,0.0707,-1.3688,,0.09
634,-0.0546,0.7904,0.0707,-1.3817,,0.0546
635,-0.0345,0.7776,0.0835,-1.3688,,0.0345
636,0.0193,0.7647,0.0707,-1.3688,,0.0193
637,0.0279,0.7519,0.0707,-1.3817,,0.0279
638,0.0534,0.7519,0.0835,-1.3688,,0.0534
639,0.1374,0.739,0.0964,-1.3688,,0.1374
640,0.0938,0.739,0.0964,-1.3945,,0.0938
641,0.0453,0.739,0.0964,-1.3945,,0.0453
642,0.0402,0.739,0.0835,-1.3945,,0.0402
643,0.0163,0.7647,0.0964,-1.3945,,0.0163
644,0.0062,0.7133,0.0835,-1.3817,,0.0062
645,-0.0087,0.7133,0.1092,-1.4074,,0.0087
646,-0.0025,0.6876,0.1092,-1.4074,,0.0025
647,-0.0188,0.6748,0.1092,-1.4074,,0.0188
648,-0.0415,0.6748,0.1092,-1.4202,,0.0415
649,-0.0605,0.6619,0.1092,-1.4202,,0.0605
650,-0.0387,0.6619,0.1221,-1.4074,,0.0387
651,-0.0129,0.6491,0.1221,-1.4202,,0.0129
652,0.0177,0.6491,0.135,-1.4459,,0.0177
653,0.0746,0.6234,0.135,-1.4202,,0.0746
654,0.1151,0.6234,0.1478,-1.4331,,0.1151
655,0.1441,0.6234,0.135,-1.4331,,0.1441
656,0.1677,0.6234,0.135,-1.4459,,0.1677
657,0.1759,0.6105,0.1221,-1.4331,,0.1759
658,0.1557,0.6362,0.1221,-1.4588,,0.1557
659,0.1203,0.6105,0.1221,-1.4331,,0.1203
660,-0.0207,0.5848,0.1221,-1.4588,,0.0207
661,-0.1408,0.5591,0.1092,-1.4459,,0.1408
662,-0.195,0.5462,0.1221,-1.4459,,0.195
663,-0.1403,0.5591,0.1092,-1.4588,,0.1403
664,-0.0689,0.5591,0.1092,-1.4202,,0.0689
665,0.0012,0.5462,0.1092,-1.4331,,0.0012
666,0.0226,0.5334,0.1092,-1.4588,,0.0226
667,-0.062,0.5462,0.1092,-1.4331,,0.062
668,-0.0234,0.5334,0.1221,-1.4459,,0.0234
669,0.0393,0.5205,0.1221,-1.4459,,0.0393
670,0.0462,0.5077,0.1221,-1.4331,,0.0462
671,-0.0122,0.5077,0.1092,-1.4331,,0.0122
672,-0.0131,0.482,0.1092,-1.4588,,0.0131
673,0.0152,0.4948,0.1092,-1.4459,,0.0152
674,0.0954,0.4948,0.1092,-1.4459,,0.0954
675,0.1124,0.4563,0.1092,-1.4202,,0.1124
676,0.0728,0.4563,0.1092,-1.4459,,0.0728
677,-0.0144,0.4434,0.1092,-1.4202,,0.0144
678,-0.057,0.4434,0.1221,-1.4202,,0.057
679,-0.0012,0.4306,0.0964,-1.4202,,0.0012
680,0.0101,0.4177,0.1221,-1.4074,,0.0101
681,0.0056,0.4177,0.1092,-1.4074,,0.0056
682,0.0232,0.4177,0.1092,-1.4074,,0.0232
683,0.075,0.392,0.1092,-1.4074,,0.075
684,0.0833,0.3792,0.1221,-1.4074,,0.0833
685,0.0749,0.3663,0.1092,-1.3945,,0.0749
686,0.081,0.3792,0.1221,-1.4202,,0.081
687,0.0613,0.3663,0.1092,-1.4202,,0.0613
688,0.0261,0.392,0.0964,-1.4202,,0.0261
689,-0.0459,0.3534,0.1092,-1.4074,,0.0459
690,-0.0486,0.3406,0.0964,-1.4202,,0.0486
691,-0.07,0.3277,0.0964,-1.4074,,0.07
692,-0.0543,0.3149,0.1092,-1.4202,,0.0543
693,-0.0018,0.3149,0.1092,-1.4331,,0.0018
694,-0.0098,0.302,0.1092,-1.4202,,0.0098
695,0.0034,0.302,0.1092,-1.4074,,0.0034
696,-0.0185,0.302,0.1092,-1.4202,,0.0185
697,-0.0178,0.2892,0.0964,-1.4202,,0.0178
698,0.0086,0.2763,0.0964,-1.4074,,0.0086
699,0.0222,0.2763,0.0964,-1.4459,,0.0222
700,0.0757,0.2635,0.1092,-1.4331,,0.0757
701,0.1034,0.2635,0.1092,-1.4331,,0.1034
702,0.1222,0.2506,0.1092,-1.4459,,0.1222
703,0.1064,0.2635,0.0964,-1.4459,,0.1064
704,0.1056,0.2378,0.0964,-1.4588,,0.1056
705,0.1186,0.2249,0.1092,-1.4459,,0.1186
706,0.1299,0.2249,0.1092,-1.4459,,0.1299
707,0.0943,0.1864,0.1092,-1.4588,,0.0943
708,0.0306,0.1992,0.1092,-1.4588,,0.0306
709,0.0043,0.1864,0.0964,-1.4202,,0.0043
710,-0.0034,0.1735,0.0964,-1.4459,,0.0034
711,-0.0016,0.1735,0.1092,-1.4331,,0.0016
712,-0.017,0.1607,0.0964,-1.4459,,0.017
713,-0.0538,0.1607,0.1092,-1.4459,,0.0538
714,-0.1118,0.1478,0.1092,-1.4202,,0.1118
715,-0.1364,0.135,0.1221,-1.4331,,0.1364
716,-0.1005,0.135,0.1221,-1.4202,,0.1005
717,-0.0592,0.1221,0.1221,-1.4331,,0.0592
718,-0.0847,0.135,0.1221,-1.4459,,0.0847
719,-0.1006,0.135,0.1092,-1.4074,,0.1006
720,-0.0171,0.1221,0.135,-1.4331,,0.0171
721,0.0511,0.1092,0.135,-1.3945,,0.0511
722,0.0467,0.1221,0.135,-1.4074,,0.0467
723,0.0924,0.1092,0.1478,-1.4202,,0.0924
724,0.1387,0.1092,0.135,-1.4459,,0.1387
725,0.0825,0.1092,0.1478,-1.4202,,0.0825
726,-0.0828,0.1092,0.1478,-1.4074,,0.0828
727,-0.195,0.1221,0.1478,-1.3945,,0.195
728,-0.098,0.1221,0.1607,-1.4202,,0.098
729,-0.1299,0.1221,0.1478,-1.4074,,0.1299
730,-0.0295,0.1221,0.1607,-1.4074,,0.0295
731,0.0204,0.1221,0.1607,-1.4074,,0.0204
732,0.0973,0.135,0.1735,-1.4202,,0.0973
733,0.1446,0.135,0.1607,-1.4202,,0.1446
734,0.1566,0.1478,0.1478,-1.4331,,0.1566
735,0.2004,0.1478,0.1478,-1.4716,,0.2004
736,0.2068,0.1607,0.1478,-1.4331,,0.2068
737,0.1491,0.1607,0.1478,-1.4202,,0.1491
738,0.1418,0.1607,0.1478,-1.4331,,0.1418
739,0.166,0.1735,0.1478,-1.4459,,0.166
740,0.1181,0.1864,0.1478,-1.4331,,0.1181
741,0.0225,0.1864,0.135,-1.4459,,0.0225
742,-0.1306,0.2121,0.1221,-1.4716,,0.1306
743,-0.2001,0.2506,0.1221,-1.4459,,0.2001
744,-0.2249,0.2249,0.1221,-1.4588,,0.2249
745,-0.1874,0.2378,0.135,-1.4588,,0.1874
746,-0.0702,0.2635,0.135,-1.4331,,0.0702
747,0.0252,0.2506,0.1221,-1.4588,,0.0252
748,0.0885,0.2763,0.135,-1.4716,,0.0885
749,0.0755,0.2892,0.1221,-1.4716,,0.0755
750,0.0289,0.2763,0.1221,-1.4588,,0.0289
751,0.0572,0.3149,0.1221,-1.4973,,0.0572
752,0.0427,0.3149,0.1221,-1.4973,,0.0427
753,-0.0046,0.3277,0.1221,-1.4716,,0.0046
754,-0.0163,0.3277,0.1221,-1.4973,,0.0163
755,0.0127,0.3406,0.1221,-1.4716,,0.0127
756,0.088,0.3663,0.1221,-1.4973,,0.088
757,0.1422,0.3663,0.1221,-1.4973,,0.1422
758,0.1374,0.4049,0.1092,-1.4973,,0.1374
759,0.1723,0.4049,0.1092,-1.4973,,0.1723
760,0.1537,0.4049,0.1092,-1.4845,,0.1537
761,0.1283,0.4177,0.1221,-1.4973,,0.1283
762,0.0784,0.4306,0.1221,-1.4973,,0.0784
763,0.0371,0.4306,0.1221,-1.4973,,0.0371
764,0.0026,0.4563,0.1221,-1.4973,,0.0026
765,-0.0171,0.4434,0.1221,-1.4973,,0.0171
766,-0.0313,0.4563,0.1092,-1.4973,,0.0313
767,-0.0522,0.482,0.1092,-1.4845,,0.0522
768,-0.0682,0.4691,0.1092,-1.4973,,0.0682
769,-0.0199,0.482,0.1092,-1.4973,,0.0199
770,-0.0361,0.482,0.1221,-1.4845,,0.0361
771,-0.0319,0.4948,0.1092,-1.4845,,0.0319
772,-0.0284,0.4948,0.1221,-1.4973,,0.0284
773,0.0067,0.5462,0.1221,-1.4973,,0.0067
774,0.0275,0.5205,0.1221,-1.4845,,0.0275
775,0.0001,0.5205,0.1221,-1.4716,,0.0001
776,0.0078,0.5205,0.1221,-1.4588,,0.0078
777,0.0081,0.5334,0.135,-1.4459,,0.0081
778,-0.0208,0.5334,0.135,-1.4459,,0.0208
779,0.0073,0.5462,0.135,-1.4202,,0.0073
780,0.0079,0.5334,0.135,-1.4331,,0.0079
781,0.0173,0.5591,0.135,-1.4459,,0.0173
782,0.0365,0.5462,0.1221,-1.4459,,0.0365
783,0.0323,0.5591,0.1221,-1.4331,,0.0323
784,0.0404,0.5591,0.135,-1.4202,,0.0404
785,0.0056,0.5462,0.1221,-1.4459,,0.0056
786,-0.1225,0.5591,0.135,-1.4202,,0.1225
787,-0.0938,0.5591,0.1221,-1.4074,,0.0938
788,-0.0554,0.5719,0.1221,-1.4202,,0.0554
789,-0.1131,0.5719,0.1221,-1.4331,,0.1131
790,-0.1562,0.5719,0.1221,-1.4074,,0.1562
791,-0.1748,0.5848,0.1221,-1.3688,,0.1748
792,-0.1365,0.5848,0.1221,-1.3817,,0.1365
793,-0.0727,0.5976,0.1221,-1.3817,,0.0727
794,0.0354,0.5848,0.135,-1.3817,,0.0354
795,0.1294,0.5848,0.1221,-1.3945,,0.1294
796,0.1934,0.5848,0.1221,-1.4331,,0.1934
797,0.2148,0.5976,0.1092,-1.3817,,0.2148
798,0.1701,0.5976,0.1092,-1.3688,,0.1701
799,0.1063,0.5976,0.1092,-1.3817,,0.1063
800,0.0955,0.6105,0.1092,-1.3688,,0.0955
801,0.0444,0.5976,0.1092,-1.3817,,0.0444
802,-0.0136,0.5848,0.1092,-1.3688,,0.0136
803,-0.0966,0.6362,0.0964,-1.356,,0.0966
804,-0.143,0.6234,0.1092,-1.356,,0.143
805,-0.0915,0.6105,0.0835,-1.3688,,0.0915
806,-0.0144,0.6105,0.0835,-1.356,,0.0144
807,0.008,0.6234,0.0964,-1.356,,0.008
808,0.0345,0.6362,0.0835,-1.3431,,0.0345
809,0.0475,0.6362,0.0835,-1.356,,0.0475
810,0.0571,0.6362,0.0835,-1.3817,,0.0571
811,0.0752,0.6362,0.0707,-1.3174,,0.0752
812,0.0877,0.6362,0.0835,-1.3688,,0.0877
813,0.1078,0.6362,0.0835,-1.3431,,0.1078
814,0.0826,0.6362,0.0578,-1.3688,,0.0826
815,0.0234,0.6362,0.0707,-1.3302,,0.0234
816,-0.1222,0.6362,0.0835,-1.356,,0.1222
817,-0.0232,0.6362,0.0707,-1.3431,,0.0232
818,0.0253,0.6619,0.0578,-1.3302,,0.0253
819,0.0386,0.6619,0.0578,-1.356,,0.0386
820,0.0186,0.6619,0.0707,-1.3302,,0.0186
821,0.0242,0.6619,0.0578,-1.3302,,0.0242
822,0.0091,0.6619,0.0707,-1.3302,,0.0091
823,-0.0384,0.6619,0.0578,-1.3302,,0.0384
824,-0.0323,0.6619,0.0578,-1.3302,,0.0323
825,-0.0175,0.6748,0.0578,-1.3174,,0.0175
826,-0.006,0.7005,0.0707,-1.3302,,0.006
827,-0.0067,0.6748,0.0707,-1.3174,,0.0067
828,-0.0116,0.7005,0.045,-1.3302,,0.0116
829,-0.0053,0.6876,0.045,-1.3045,,0.0053
830,-0.0001,0.6876,0.0707,-1.3174,,0.0001
831,0.0289,0.6876,0.0707,-1.3174,,0.0289
832,0.0311,0.7005,0.0835,-1.3431,,0.0311
833,0.0329,0.6876,0.0578,-1.3174,,0.0329
834,0.0438,0.7005,0.0578,-1.3045,,0.0438
835,0.0178,0.7262,0.0578,-1.2917,,0.0178
836,-0.0023,0.7133,0.0578,-1.3174,,0.0023
837,-0.0107,0.7262,0.045,-1.3174,,0.0107
838,0.0235,0.739,0.0707,-1.3045,,0.0235
839,0.0192,0.739,0.0578,-1.2917,,0.0192
840,-0.0242,0.739,0.0578,-1.3045,,0.0242
841,-0.0609,0.7519,0.0578,-1.2917,,0.0609
842,-0.0785,0.7519,0.0578,-1.3045,,0.0785
843,-0.0201,0.7904,0.045,-1.2917,,0.0201
844,0.0067,0.7776,0.0707,-1.3174,,0.0067
845,0.013,0.7647,0.0578,-1.2917,,0.013
846,0.0261,0.7519,0.0578,-1.3045,,0.0261
847,0.0294,0.7519,0.045,-1.2531,,0.0294
848,0.0365,0.7776,0.0578,-1.2788,,0.0365
849,0.0393,0.7776,0.045,-1.2788,,0.0393
850,0.0281,0.7776,0.0321,-1.2788,,0.0281
851,0.014,0.7904,0.0321,-1.2531,,0.014
852,-0.0191,0.7904,0.045,-1.266,,0.0191
853,-0.0975,0.7776,0.0321,-1.3045,,0.0975
854,-0.079,0.7776,0.0193,-1.2917,,0.079
855,-0.0308,0.7904,0.0193,-1.266,,0.0308
856,-0.0259,0.7904,0.0193,-1.266,,0.0259
857,0.0275,0.7904,0.0321,-1.2788,,0.0275
858,0.024,0.8033,0.0064,-1.266,,0.024
859,0.0208,0.7904,-0.0064,-1.266,,0.0208
860,0.0323,0.8033,0.0193,-1.2917,,0.0323
861,0.0241,0.8033,0.0064,-1.2788,,0.0241
862,0.0226,0.8033,0.0193,-1.266,,0.0226
863,-0.0157,0.8033,0.0064,-1.2917,,0.0157
864,-0.0219,0.7904,0.0193,-1.2531,,0.0219
865,0.0108,0.8033,0.0064,-1.2531,,0.0108
866,0.0407,0.8161,0.0064,-1.2531,,0.0407
867,0.0423,0.8033,0.0193,-1.2403,,0.0423
868,0.044,0.8161,0.0193,-1.2531,,0.044
869,0.021,0.8161,0.0064,-1.2274,,0.021
870,0.0116,0.8161,0.0193,-1.2146,,0.0116
871,0.0592,0.8161,0.0321,-1.2274,,0.0592
872,0.0741,0.8161,0.0321,-1.2146,,0.0741
873,0.1026,0.829,0.0064,-1.2531,,0.1026
874,0.0711,0.829,0.0064,-1.2274,,0.0711
875,0.0601,0.829,0.0064,-1.2274,,0.0601
876,0.0429,0.8418,0.0064,-1.1889,,0.0429
877,-0.0178,0.8418,0.0064,-1.2274,,0.0178
878,-0.1074,0.8418,0.0064,-1.1889,,0.1074
879,-0.0957,0.829,0.0064,-1.2017,,0.0957
880,-0.0884,0.8547,0.0193,-1.1889,,0.0884
881,-0.0475,0.8547,0.0193,-1.2017,,0.0475
882,-0.0557,0.8547,0.0064,-1.2017,,0.0557
883,-0.0426,0.8676,0.0193,-1.1889,,0.0426
884,-0.0266,0.8676,0.0064,-1.1889,,0.0266
885,-0.0195,0.8676,0.0064,-1.1503,,0.0195
886,-0.0136,0.8804,0.0193,-1.1503,,0.0136
887,-0.0189,0.8804,0.0064,-1.176,,0.0189
888,0.0074,0.9061,0.0064,-1.1632,,0.0074
889,-0.0514,0.9061,-0.0193,-1.176,,0.0514
890,-0.0054,0.9061,-0.0193,-1.1632,,0.0054
891,0.0277,0.919,-0.0064,-1.1503,,0.0277
892,0.0456,0.9061,-0.0064,-1.1632,,0.0456
893,0.0733,0.919,-0.0064,-1.176,,0.0733
894,0.0369,0.9318,-0.0064,-1.1503,,0.0369
895,0.0469,0.9318,-0.0193,-1.176,,0.0469
896,0.0496,0.9575,-0.0193,-1.1632,,0.0496
897,0.0215,0.9447,-0.0193,-1.176,,0.0215
898,-0.0101,0.9704,-0.0193,-1.1632,,0.0101
899,0.0122,0.9575,-0.0193,-1.1889,,0.0122
900,0.025,0.9704,-0.0064,-1.1889,,0.025
901,0.0401,0.9704,-0.0193,-1.1632,,0.0401
902,0.0404,0.9832,-0.0064,-1.176,,0.0404
903,0.0506,1.0089,-0.0193,-1.176,,0.0506
904,-0.0174,0.9961,-0.0321,-1.1889,,0.0174
905,-0.0875,0.9832,-0.0321,-1.1889,,0.0875
906,-0.0396,1.0089,-0.0321,-1.1889,,0.0396
907,-0.0383,1.0089,-0.0321,-1.176,,0.0383
908,-0.0452,1.0218,-0.0193,-1.2017,,0.0452
909,-0.0097,1.0218,-0.0321,-1.2146,,0.0097
910,0.02,1.0218,-0.0321,-1.1889,,0.02
911,0.0288,1.0218,-0.0321,-1.2017,,0.0288
912,0.0199,1.0218,-0.045,-1.1889,,0.0199
913,0.0332,1.0346,-0.0321,-1.2146,,0.0332
914,0.0211,1.0346,-0.0321,-1.2017,,0.0211
915,0.0391,1.0218,-0.0321,-1.2146,,0.0391
916,0.0346,1.0346,-0.0321,-1.2274,,0.0346
917,0.0094,1.0346,-0.0193,-1.2146,,0.0094
918,0.0127,1.086,-0.0321,-1.2146,,0.0127
919,0.0075,1.0346,-0.0321,-1.176,,0.0075
920,-0.0111,1.0346,-0.0193,-1.2274,,0.0111
921,0.0049,1.0346,-0.045,-1.2146,,0.0049
922,0.0075,1.0475,-0.045,-1.2017,,0.0075
923,0.0413,1.0346,-0.0321,-1.2146,,0.0413
924,0.0347,1.0346,-0.0193,-1.2274,,0.0347
925,0.0644,1.0346,-0.0193,-1.2017,,0.0644
926,0.0571,1.0346,-0.0193,-1.2146,,0.0571
927,0.0231,1.0346,-0.0193,-1.2017,,0.0231
928,-0.0188,1.0732,-0.0193,-1.2017,,0.0188
929,-0.102,1.0732,-0.0193,-1.2274,,0.102
930,-0.097,1.0475,-0.0193,-1.1889,,0.097
931,-0.0445,1.0346,-0.0193,-1.2017,,0.0445
932,-0.0085,1.0603,-0.0064,-1.2146,,0.0085
933,0.02,1.0475,-0.0064,-1.2017,,0.02
934,0.0287,1.0475,-0.0064,-1.1889,,0.0287
935,-0.0005,1.0475,-0.0064,-1.2146,,0.0005
936,-0.054,1.0603,-0.0193,-1.1889,,0.054
937,-0.0215,1.0475,-0.0193,-1.2017,,0.0215
938,0.0054,1.0603,-0.0064,-1.1889,,0.0054
939,-0.0083,1.0475,-0.0064,-1.176,,0.0083
940,0.0686,1.0475,-0.0064,-1.2017,,0.0686
941,0.084,1.0475,-0.0064,-1.2017,,0.084
942,0.0917,1.0603,-0.0193,-1.1889,,0.0917
943,0.0787,1.0603,-0.0064,-1.2017,,0.0787
944,0.1034,1.0732,-0.0193,-1.1889,,0.1034
945,0.1074,1.0603,-0.0064,-1.2017,,0.1074
946,0.0719,1.0732,0.0064,-1.176,,0.0719
947,0.029,1.0603,0.0064,-1.176,,0.029
948,-0.0462,1.0732,0.0064,-1.1889,,0.0462
949,-0.1292,1.0732,0.0064,-1.1632,,0.1292
950,-0.0849,1.0732,0.0064,-1.1632,,0.0849
951,-0.0741,1.0603,0.0064,-1.1889,,0.0741
952,-0.0811,1.0732,-0.0064,-1.1889,,0.0811
953,-0.1019,1.0732,-0.0064,-1.1632,,0.1019
954,-0.0853,1.0732,-0.0064,-1.1503,,0.0853
955,-0.0483,1.0732,0.0064,-1.1375,,0.0483
956,0.0174,1.0603,-0.0064,-1.1503,,0.0174
957,0.0746,1.0603,-0.0193,-1.1503,,0.0746
958,0.1074,1.086,-0.0064,-1.1375,,0.1074
959,0.1674,1.0989,-0.0064,-1.1375,,0.1674
960,0.1936,1.0732,-0.0064,-1.1375,,0.1936
961,0.1253,1.0732,-0.0193,-1.1246,,0.1253
962,0.0124,1.0732,-0.0064,-1.1118,,0.0124
963,-0.1329,1.0732,-0.0064,-1.0989,,0.1329
964,-0.1429,1.0732,0.0064,-1.0732,,0.1429
965,-0.1233,1.0732,-0.0064,-1.1118,,0.1233
966,-0.1391,1.0732,-0.0193,-1.1118,,0.1391
967,-0.0818,1.086,-0.0321,-1.0989,,0.0818
968,0.0028,1.086,-0.0321,-1.1118,,0.0028
969,0.0749,1.0732,-0.0321,-1.1118,,0.0749
970,0.1357,1.0732,-0.0193,-1.086,,0.1357
971,0.1595,1.0732,-0.0193,-1.0732,,0.1595
972,0.1313,1.0732,-0.0193,-1.0732,,0.1313
973,0.108,1.0732,-0.0321,-1.086,,0.108
974,0.0819,1.0732,-0.045,-1.0732,,0.0819
975,-0.0108,1.0732,-0.0321,-1.0989,,0.0108
976,-0.121,1.0603,-0.045,-1.0732,,0.121
977,-0.1844,1.0475,-0.045,-1.0732,,0.1844
978,-0.1866,1.0475,-0.045,-1.0603,,0.1866
979,-0.0895,1.0346,-0.0193,-1.0475,,0.0895
980,-0.0763,1.0475,-0.0193,-1.0732,,0.0763
981,-0.0453,1.0346,-0.0321,-1.0603,,0.0453
982,0.02,1.0346,-0.0321,-1.0603,,0.02
983,0.0435,1.0346,-0.0321,-1.0475,,0.0435
984,0.0435,1.0346,-0.0321,-1.0603,,0.0435
985,0.0954,1.0346,-0.0193,-1.0346,,0.0954
986,0.1133,1.0089,-0.0193,-1.0475,,0.1133
987,0.1228,1.0089,-0.0193,-1.0346,,0.1228
988,0.0726,1.0346,-0.0193,-1.0603,,0.0726
989,-0.0035,1.0218,-0.0321,-1.0475,,0.0035
990,-0.0827,1.0218,-0.0321,-1.0603,,0.0827
991,-0.1236,1.0089,-0.0321,-1.0089,,0.1236
992,-0.0552,1.0089,-0.0193,-1.0218,,0.0552
993,-0.0075,1.0218,-0.0193,-1.0218,,0.0075
994,0.016,1.0089,-0.0193,-1.0346,,0.016
995,0.0594,1.0218,-0.0193,-1.0346,,0.0594
996,0.1078,1.0346,0.0064,-1.0218,,0.1078
997,0.1022,1.0218,-0.0064,-1.0218,,0.1022
998,0.0994,1.0089,-0.0193,-1.0346,,0.0994
999,0.1206,1.0218,-0.0064,-1.0475,,0.1206
1000,0.1419,1.0089,0.0064,-1.0218,,0.1419
1001,0.0493,0.9961,0.0064,-1.0475,,0.0493
1002,-0.0365,0.9961,0.0193,-1.0475,,0.0365
1003,-0.0961,0.9704,0.0321,-1.0346,,0.0961
1004,-0.0815,0.9704,0.0193,-1.0475,,0.0815
1005,-0.0376,0.9318,0.0321,-1.0732,,0.0376
1006,-0.0976,0.919,0.0578,-1.0989,,0.0976
1007,-0.0855,0.9061,0.045,-1.0346,,0.0855
1008,-0.0141,0.8933,0.0578,-1.0475,,0.0141
1009,0.0618,0.8804,0.0707,-1.0603,,0.0618
1010,0.091,0.8676,0.0964,-1.0732,,0.091
1011,0.0658,0.8547,0.0964,-1.0989,,0.0658
1012,-0.013,0.8547,0.0835,-1.0732,,0.013
1013,0.0677,0.8804,0.0835,-1.0989,,0.0677
1014,0.0752,0.8547,0.0707,-1.1118,,0.0752
1015,0.0279,0.829,0.0707,-1.086,,0.0279
1016,-0.1845,0.8161,0.0578,-1.086,,0.1845
1017,-0.1825,0.8161,0.0835,-1.086,,0.1825
1018,-0.0565,0.8033,0.0578,-1.1118,,0.0565
1019,0.0305,0.8033,0.0578,-1.086,,0.0305
1020,0.0192,0.8033,0.0578,-1.1118,,0.0192
1021,0.0576,0.8161,0.0578,-1.0989,,0.0576
1022,0.0469,0.7904,0.045,-1.1246,,0.0469
1023,0.0783,0.8033,0.0578,-1.1246,,0.0783
1024,0.064,0.8033,0.045,-1.1246,,0.064
1025,0.0965,0.7904,0.045,-1.1246,,0.0965
1026,0.1035,0.7776,0.045,-1.1118,,0.1035
1027,0.1341,0.7904,0.0578,-1.1246,,0.1341
1028,0.1193,0.8033,0.0707,-1.1118,,0.1193
1029,0.0761,0.7904,0.045,-1.0989,,0.0761
1030,-0.0069,0.7776,0.045,-1.1375,,0.0069
1031,-0.0776,0.7776,0.0578,-1.1118,,0.0776
1032,-0.0431,0.7647,0.0578,-1.086,,0.0431
1033,-0.0193,0.7519,0.0707,-1.0989,,0.0193
1034,0.0145,0.7519,0.0835,-1.1118,,0.0145
1035,0.0662,0.7519,0.0707,-1.0989,,0.0662
1036,0.0755,0.7519,0.0707,-1.1246,,0.0755
1037,-0.0486,0.7647,0.0578,-1.1118,,0.0486
1038,-0.1093,0.7776,0.0835,-1.1246,,0.1093
1039,-0.017,0.7904,0.0835,-1.1118,,0.017
1040,-0.0068,0.7904,0.0835,-1.1118,,0.0068
1041,-0.027,0.8033,0.0835,-1.1118,,0.027
1042,-0.0356,0.829,0.0964,-1.0989,,0.0356
1043,-0.0986,0.8676,0.0835,-1.1118,,0.0986
1044,-0.042,0.8804,0.0707,-1.1246,,0.042
1045,0.0062,0.8933,0.0835,-1.0989,,0.0062
1046,0.0248,0.919,0.0707,-1.1246,,0.0248
1047,0.0201,0.9447,0.0835,-1.1118,,0.0201
1048,-0.0007,0.9447,0.0835,-1.0989,,0.0007
1049,-0.0301,0.9704,0.0835,-1.0989,,0.0301
1050,-0.0167,0.9961,0.0707,-1.0989,,0.0167
1051,0.0353,1.0346,0.0707,-1.086,,0.0353
1052,0.0288,1.0732,0.0707,-1.0732,,0.0288
1053,0.0756,1.086,0.0835,-1.0989,,0.0756
1054,0.1162,1.1118,0.0707,-1.0732,,0.1162
1055,0.1488,1.1118,0.0835,-1.086,,0.1488
1056,0.1354,1.1503,0.0707,-1.086,,0.1354
1057,0.1099,1.1503,0.0707,-1.0475,,0.1099
1058,0.0131,1.2017,0.0835,-1.0732,,0.0131
1059,0.0035,1.2274,0.0707,-1.086,,0.0035
1060,-0.1164,1.2403,0.045,-1.0732,,0.1164
1061,-0.1111,1.2274,0.0707,-1.0603,,0.1111
1062,-0.0569,1.2531,0.0707,-1.0603,,0.0569
1063,-0.05,1.2531,0.0707,-1.086,,0.05
1064,0.0299,1.266,0.0707,-1.0732,,0.0299
1065,0.0749,1.2531,0.0835,-1.086,,0.0749
1066,0.0175,1.2403,0.0707,-1.0989,,0.0175
1067,-0.0946,1.2531,0.0835,-1.086,,0.0946
1068,-0.0715,1.2403,0.0707,-1.086,,0.0715
1069,-0.0008,1.2146,0.0835,-1.1375,,0.0008
1070,0.0346,1.2146,0.0835,-1.0989,,0.0346
1071,0.0713,1.2017,0.0835,-1.086,,0.0713
1072,0.0955,1.176,0.0964,-1.1246,,0.0955
1073,0.1261,1.1889,0.1092,-1.1118,,0.1261
1074,0.1624,1.1503,0.0964,-1.1375,,0.1624
1075,0.1609,1.1118,0.0835,-1.1503,,0.1609
1076,0.1728,1.086,0.0964,-1.1503,,0.1728
1077,0.0918,1.0603,0.1092,-1.1632,,0.0918
1078,-0.0111,1.0346,0.1092,-1.1503,,0.0111
1079,-0.0215,0.9832,0.1221,-1.1375,,0.0215
1080,0.0688,0.9575,0.1221,-1.1632,,0.0688
1081,0.0602,0.9318,0.1221,-1.176,,0.0602
1082,0.0045,0.8933,0.1221,-1.1889,,0.0045
1083,-0.0998,0.8804,0.135,-1.2017,,0.0998
1084,-0.1563,0.8547,0.135,-1.176,,0.1563
1085,-0.1441,0.829,0.135,-1.1889,,0.1441
1086,-0.1173,0.8033,0.135,-1.1632,,0.1173
1087,-0.007,0.7776,0.135,-1.176,,0.007
1088,0.0565,0.739,0.135,-1.1632,,0.0565
1089,-0.0423,0.7262,0.135,-1.176,,0.0423
1090,-0.0129,0.7005,0.135,-1.1632,,0.0129
1091,0.0438,0.6876,0.135,-1.1632,,0.0438
1092,0.0461,0.6619,0.135,-1.1632,,0.0461
1093,0.005,0.6491,0.135,-1.1375,,0.005
1094,-0.038,0.6234,0.1221,-1.1375,,0.038
1095,-0.0589,0.5976,0.1221,-1.1632,,0.0589
1096,-0.0907,0.5848,0.1221,-1.1375,,0.0907
1097,0.0193,0.5591,0.1221,-1.1246,,0.0193
1098,0.0555,0.5719,0.1092,-1.1246,,0.0555
1099,0.0514,0.5591,0.1221,-1.1375,,0.0514
1100,0.0133,0.5334,0.1092,-1.1503,,0.0133
1101,0.0248,0.5334,0.1221,-1.1246,,0.0248
1102,0.0167,0.5205,0.1092,-1.1118,,0.0167
1103,0.0286,0.5205,0.1092,-1.1118,,0.0286
1104,-0.0098,0.5077,0.0964,-1.1246,,0.0098
1105,0.0017,0.5077,0.1092,-1.1118,,0.0017
1106,0.0065,0.4948,0.0964,-1.0989,,0.0065
1107,0.0217,0.4948,0.0707,-1.1503,,0.0217
1108,-0.0089,0.5077,0.0835,-1.1503,,0.0089
1109,0.0314,0.482,0.0707,-1.0989,,0.0314
1110,0.0259,0.4948,0.0964,-1.1246,,0.0259
1111,0.0254,0.4948,0.0835,-1.1375,,0.0254
1112,0.0296,0.4948,0.0707,-1.1632,,0.0296
1113,0.022,0.5334,0.0835,-1.1246,,0.022
1114,0.0628,0.5462,0.0578,-1.1375,,0.0628
1115,0.0675,0.5462,0.0578,-1.1632,,0.0675
1116,0.0408,0.5719,0.0707,-1.1889,,0.0408
1117,0.0549,0.5976,0.0707,-1.1632,,0.0549
1118,0.1266,0.6105,0.0707,-1.1632,,0.1266
1119,0.113,0.6362,0.0578,-1.1889,,0.113
1120,0.0283,0.6619,0.0964,-1.176,,0.0283
1121,0.0464,0.6876,0.0835,-1.2017,,0.0464
1122,0.0431,0.7262,0.0835,-1.2017,,0.0431
1123,-0.0005,0.7647,0.0964,-1.2146,,0.0005
1124,-0.2219,0.7904,0.0835,-1.2146,,0.2219
1125,-0.2405,0.8033,0.1092,-1.2017,,0.2405
1126,-0.1369,0.8418,0.1221,-1.2274,,0.1369
1127,-0.0116,0.8804,0.1221,-1.2274,,0.0116
1128,0.0148,0.9061,0.1092,-1.2274,,0.0148
1129,0.002,0.9447,0.1221,-1.2403,,0.002
1130,0.0175,0.9704,0.135,-1.2788,,0.0175
1131,-0.0186,0.9961,0.135,-1.2531,,0.0186
1132,-0.0947,1.0218,0.135,-1.2788,,0.0947
1133,-0.1175,1.0346,0.1478,-1.2788,,0.1175
1134,-0.0549,1.0603,0.1478,-1.266,,0.0549
1135,-0.0654,1.086,0.1864,-1.3045,,0.0654
1136,-0.0302,1.1118,0.1864,-1.3174,,0.0302
1137,-0.0467,1.1246,0.1992,-1.3431,,0.0467
1138,-0.0208,1.1375,0.1864,-1.3174,,0.0208
1139,0.0404,1.1632,0.2121,-1.3431,,0.0404
1140,0.0543,1.1632,0.2121,-1.356,,0.0543
1141,0.0354,1.176,0.2378,-1.3817,,0.0354
1142,0.0292,1.1632,0.2249,-1.3817,,0.0292
1143,0.0148,1.176,0.2378,-1.3945,,0.0148
1144,0.0146,1.176,0.2378,-1.4202,,0.0146
1145,0.1147,1.176,0.2635,-1.3945,,0.1147
1146,0.2174,1.1632,0.2635,-1.3945,,0.2174
1147,0.2403,1.1503,0.2635,-1.4459,,0.2403
1148,0.2745,1.1503,0.2763,-1.4074,,0.2745
1149,0.2082,1.1118,0.2763,-1.4331,,0.2082
1150,0.148,1.1118,0.2892,-1.4202,,0.148
1151,-0.0223,1.086,0.2892,-1.4202,,0.0223
1152,-0.0812,1.0732,0.2892,-1.4459,,0.0812
1153,-0.1168,1.0603,0.302,-1.4331,,0.1168
1154,-0.0303,1.0346,0.2763,-1.4331,,0.0303
1155,-0.0127,1.0089,0.2892,-1.4459,,0.0127
1156,0.0108,0.9832,0.302,-1.4331,,0.0108
1157,-0.0179,0.9575,0.2892,-1.4331,,0.0179
1158,-0.0572,0.9447,0.2892,-1.4202,,0.0572
1159,-0.0567,0.919,0.2763,-1.4202,,0.0567
1160,-0.0584,0.8933,0.2763,-1.4588,,0.0584
1161,-0.0289,0.8804,0.2763,-1.4459,,0.0289
1162,-0.0251,0.8547,0.2763,-1.4459,,0.0251
1163,-0.0343,0.8161,0.2763,-1.4331,,0.0343
1164,-0.0283,0.8033,0.2892,-1.4074,,0.0283
1165,-0.0276,0.7776,0.2892,-1.4202,,0.0276
1166,-0.0237,0.7519,0.2763,-1.4074,,0.0237
1167,-0.0191,0.7519,0.2763,-1.4202,,0.0191
1168,-0.0111,0.739,0.2763,-1.4331,,0.0111
1169,0.0163,0.7133,0.2635,-1.4202,,0.0163
1170,0.0218,0.7005,0.2635,-1.4331,,0.0218
1171,0.043,0.6748,0.2763,-1.4202,,0.043
1172,0.0658,0.6619,0.2763,-1.4202,,0.0658
1173,0.0578,0.6748,0.2763,-1.4588,,0.0578
1174,0.0248,0.6362,0.2506,-1.4331,,0.0248
1175,0.0549,0.6234,0.2635,-1.4331,,0.0549
1176,0.0642,0.6234,0.2635,-1.4331,,0.0642
1177,0.0644,0.6105,0.2763,-1.4459,,0.0644
1178,0.0921,0.5848,0.2763,-1.4459,,0.0921
1179,0.0534,0.5976,0.2763,-1.4331,,0.0534
1180,0.0412,0.5591,0.2635,-1.4331,,0.0412
1181,0.0609,0.5719,0.2763,-1.4331,,0.0609
1182,0.0702,0.5719,0.2892,-1.4331,,0.0702
1183,0.0642,0.5591,0.2892,-1.4202,,0.0642
1184,0.0226,0.5591,0.2892,-1.4588,,0.0226
1185,-0.0688,0.5462,0.2892,-1.4202,,0.0688
1186,-0.051,0.5591,0.2892,-1.4331,,0.051
1187,-0.1226,0.5462,0.302,-1.4331,,0.1226
1188,-0.103,0.5462,0.302,-1.4459,,0.103
1189,-0.0635,0.5334,0.302,-1.4716,,0.0635
1190,-0.0929,0.5334,0.3149,-1.4459,,0.0929
1191,-0.1102,0.5462,0.3149,-1.4202,,0.1102
1192,-0.0522,0.5334,0.3149,-1.4459,,0.0522
1193,-0.0174,0.5334,0.3149,-1.4331,,0.0174
1194,0.0527,0.5334,0.3277,-1.4588,,0.0527
1195,0.0615,0.5205,0.3277,-1.4459,,0.0615
1196,0.0612,0.5334,0.3406,-1.4202,,0.0612
1197,0.0752,0.5205,0.3534,-1.4202,,0.0752
1198,0.0691,0.5334,0.3406,-1.4202,,0.0691
1199,-0.0155,0.5334,0.3534,-1.4459,,0.0155
1200,-0.0557,0.5077,0.3534,-1.4202,,0.0557
1201,-0.0763,0.5205,0.3406,-1.4202,,0.0763
1202,-0.116,0.5077,0.3534,-1.3945,,0.116
1203,-0.0327,0.4948,0.3663,-1.4202,,0.0327
1204,0.0192,0.4948,0.3663,-1.4074,,0.0192
1205,0.0626,0.4948,0.3663,-1.4331,,0.0626
1206,0.071,0.4948,0.3534,-1.4074,,0.071
1207,0.0517,0.4948,0.3534,-1.4074,,0.0517
1208,0.0518,0.482,0.3534,-1.4074,,0.0518
1209,0.0591,0.4948,0.3534,-1.3817,,0.0591
1210,0.096,0.482,0.3406,-1.4074,,0.096
1211,0.1137,0.4948,0.3406,-1.3688,,0.1137
1212,0.0486,0.482,0.3406,-1.356,,0.0486
1213,0.1069,0.5077,0.3406,-1.3688,,0.1069
1214,0.1788,0.5077,0.3277,-1.356,,0.1788
1215,0.143,0.4948,0.3149,-1.356,,0.143
1216,0.0308,0.5077,0.302,-1.356,,0.0308
1217,-0.0288,0.5077,0.302,-1.356,,0.0288
1218,-0.0572,0.5205,0.302,-1.3302,,0.0572
1219,-0.0499,0.5205,0.2892,-1.3174,,0.0499
1220,-0.1045,0.5334,0.2892,-1.3045,,0.1045
1221,-0.0362,0.5591,0.2892,-1.3045,,0.0362
1222,-0.0939,0.5719,0.2763,-1.3174,,0.0939
1223,-0.101,0.5848,0.2635,-1.2917,,0.101
1224,-0.1822,0.6234,0.2635,-1.2917,,0.1822
1225,-0.1532,0.6234,0.2635,-1.2917,,0.1532
1226,-0.1495,0.6362,0.2506,-1.266,,0.1495
1227,-0.1567,0.6491,0.2635,-1.2531,,0.1567
1228,-0.0691,0.6748,0.2506,-1.266,,0.0691
1229,0.0118,0.7005,0.2506,-1.2403,,0.0118
1230,0.0606,0.7133,0.2506,-1.2274,,0.0606
1231,0.0887,0.7262,0.2378,-1.266,,0.0887
1232,0.072,0.739,0.2378,-1.2403,,0.072
1233,0.1087,0.7519,0.2249,-1.2146,,0.1087
1234,0.0979,0.7519,0.2378,-1.2274,,0.0979
1235,0.0699,0.7776,0.2378,-1.2531,,0.0699
1236,0.0111,0.7904,0.2249,-1.2531,,0.0111
1237,-0.0284,0.8033,0.2249,-1.2274,,0.0284
1238,-0.0047,0.8161,0.2249,-1.2274,,0.0047
1239,0.0838,0.829,0.1992,-1.2403,,0.0838
1240,0.2315,0.8418,0.2121,-1.2403,,0.2315
1241,0.3065,0.8418,0.1992,-1.2146,,0.3065
1242,0.2141,0.8547,0.1992,-1.2017,,0.2141
1243,0.1931,0.8804,0.2249,-1.2274,,0.1931
1244,0.1452,0.8804,0.1864,-1.2274,,0.1452
1245,0.107,0.8804,0.1992,-1.2403,,0.107
1246,-0.0281,0.8933,0.1864,-1.2146,,0.0281
1247,-0.0877,0.9061,0.1864,-1.2274,,0.0877
1248,-0.0222,0.9061,0.1864,-1.2146,,0.0222
1249,-0.066,0.919,0.1864,-1.2403,,0.066
1250,-0.0957,0.9061,0.1864,-1.2146,,0.0957
1251,-0.1141,0.9061,0.1864,-1.2274,,0.1141
1252,-0.0734,0.919,0.1735,-1.2274,,0.0734
1253,-0.057,0.919,0.1735,-1.2146,,0.057
1254,-0.05,0.9318,0.1735,-1.2403,,0.05
1255,0.0334,0.919,0.1735,-1.2146,,0.0334
1256,0.085,0.9318,0.1735,-1.2274,,0.085
1257,0.0658,0.9318,0.1735,-1.2274,,0.0658
1258,0.0495,0.9318,0.1735,-1.2403,,0.0495
1259,0.0346,0.919,0.1864,-1.2274,,0.0346
1260,0.0354,0.919,0.1864,-1.2146,,0.0354
1261,0.0488,0.919,0.1735,-1.2274,,0.0488
1262,0.0302,0.919,0.1735,-1.2146,,0.0302
1263,-0.0016,0.919,0.1607,-1.2146,,0.0016
1264,0.0031,0.9061,0.1864,-1.2017,,0.0031
1265,0.028,0.9061,0.1864,-1.2146,,0.028
1266,-0.007,0.9061,0.1735,-1.2017,,0.007
1267,0.0185,0.9061,0.1735,-1.2146,,0.0185
1268,0.1376,0.8804,0.1864,-1.1889,,0.1376
1269,0.2013,0.9061,0.1607,-1.2146,,0.2013
1270,0.173,0.9061,0.1735,-1.2017,,0.173
1271,0.1716,0.8933,0.1607,-1.2146,,0.1716
1272,0.1079,0.8804,0.1607,-1.1889,,0.1079
1273,-0.0149,0.9318,0.1735,-1.1889,,0.0149
1274,0.0301,0.8804,0.1478,-1.1889,,0.0301
1275,0.0398,0.8804,0.1607,-1.1889,,0.0398
1276,-0.0493,0.8804,0.1735,-1.1889,,0.0493
1277,-0.1151,0.8804,0.1478,-1.1632,,0.1151
1278,-0.1598,0.8933,0.1607,-1.1889,,0.1598
1279,-0.1225,0.8804,0.1607,-1.1889,,0.1225
1280,-0.129,0.8804,0.1478,-1.1889,,0.129
1281,-0.2502,0.8804,0.1607,-1.1889,,0.2502
1282,-0.2205,0.8676,0.1478,-1.176,,0.2205
1283,-0.1372,0.9061,0.1735,-1.1503,,0.1372
1284,-0.0429,0.8804,0.135,-1.176,,0.0429
1285,0.001,0.8933,0.1478,-1.1503,,0.001
1286,0.0199,0.8933,0.135,-1.1503,,0.0199
1287,0.0215,0.8804,0.1478,-1.176,,0.0215
1288,0.0305,0.8933,0.1478,-1.1503,,0.0305
1289,0.0574,0.8933,0.1478,-1.1246,,0.0574
1290,0.0511,0.8933,0.1478,-1.1503,,0.0511
1291,0.0761,0.9061,0.1478,-1.1503,,0.0761
1292,0.0893,0.919,0.1478,-1.1632,,0.0893
1293,0.0921,0.919,0.135,-1.1503,,0.0921
1294,0.0126,0.919,0.135,-1.1503,,0.0126
1295,-0.0397,0.9318,0.1478,-1.1246,,0.0397
1296,-0.1398,0.919,0.135,-1.1375,,0.1398
1297,-0.1555,0.9318,0.135,-1.1375,,0.1555
1298,-0.0752,0.9575,0.1221,-1.1375,,0.0752
1299,-0.0078,0.9447,0.1092,-1.1503,,0.0078
1300,-0.0233,0.9575,0.1221,-1.1118,,0.0233
1301,0.0247,0.9575,0.1221,-1.1246,,0.0247
1302,0.0574,0.9704,0.1092,-1.1246,,0.0574
1303,0.0994,0.9704,0.1092,-1.1375,,0.0994
1304,0.1215,0.9704,0.1092,-1.1503,,0.1215
1305,-0.0009,0.9575,0.1221,-1.1375,,0.0009
1306,0.0737,0.9704,0.1221,-1.1246,,0.0737
1307,0.1607,0.9832,0.1092,-1.1118,,0.1607
1308,0.1539,0.9961,0.1092,-1.1375,,0.1539
1309,0.065,0.9961,0.0835,-1.1503,,0.065
1310,-0.0134,0.9961,0.1092,-1.1246,,0.0134
1311,-0.0262,0.9832,0.0964,-1.1246,,0.0262
1312,-0.0038,0.9961,0.0964,-1.1375,,0.0038
1313,0.0136,0.9961,0.0964,-1.1246,,0.0136
1314,0.0034,0.9961,0.0835,-1.1503,,0.0034
1315,-0.012,0.9832,0.0964,-1.1503,,0.012
1316,-0.0379,0.9832,0.0835,-1.1118,,0.0379
1317,-0.0461,0.9704,0.0835,-1.1375,,0.0461
1318,-0.0292,0.9575,0.0835,-1.1375,,0.0292
1319,0.0243,0.9575,0.0835,-1.1246,,0.0243
1320,0.013,0.9575,0.0964,-1.086,,0.013
1321,-0.0455,0.9575,0.0964,-1.1118,,0.0455
1322,-0.1704,0.9704,0.0964,-1.1375,,0.1704
1323,-0.1502,0.9575,0.0964,-1.1246,,0.1502
1324,-0.1061,0.9447,0.0835,-1.1118,,0.1061
1325,-0.0708,0.9318,0.0964,-1.1118,,0.0708
1326,-0.0206,0.9318,0.0835,-1.0989,,0.0206
1327,-0.0179,0.9061,0.0835,-1.1118,,0.0179
1328,0.0061,0.9318,0.0835,-1.0989,,0.0061
1329,0.0555,0.9061,0.0835,-1.1246,,0.0555
1330,0.084,0.9061,0.0707,-1.0989,,0.084
1331,0.0943,0.9061,0.0707,-1.1118,,0.0943
1332,0.2021,0.9061,0.0707,-1.1246,,0.2021
1333,0.3078,0.8933,0.0707,-1.0989,,0.3078
1334,0.4133,0.8933,0.0707,-1.086,,0.4133
1335,0.361,0.9061,0.0707,-1.086,,0.361
1336,0.2309,0.8933,0.0707,-1.0989,,0.2309
1337,0.1331,0.8933,0.0578,-1.0989,,0.1331
1338,0.0598,0.919,0.045,-1.0989,,0.0598
1339,-0.0329,0.919,0.045,-1.0989,,0.0329
1340,-0.1351,0.9061,0.0193,-1.0989,,0.1351
1341,-0.1482,0.919,0.0193,-1.1246,,0.1482
1342,-0.1921,0.9318,0.0064,-1.1118,,0.1921
1343,-0.1522,0.9318,0.0064,-1.1118,,0.1522
1344,-0.0704,0.9318,0.0064,-1.1246,,0.0704
1345,-0.0071,0.9318,-0.0064,-1.1632,,0.0071
1346,0.0584,0.9318,-0.0064,-1.176,,0.0584
1347,0.039,0.9447,-0.0064,-1.176,,0.039
1348,0.0021,0.9575,0.0064,-1.176,,0.0021
1349,-0.0021,0.9575,0.0064,-1.2146,,0.0021
1350,-0.0254,0.9704,0.0064,-1.2017,,0.0254
1351,-0.1496,0.9832,0.0064,-1.2146,,0.1496
1352,-0.1034,0.9704,0.0193,-1.2274,,0.1034
1353,-0.0336,0.9832,0.0321,-1.2403,,0.0336
1354,-0.0056,0.9961,0.0321,-1.2788,,0.0056
1355,-0.0295,0.9961,0.045,-1.2788,,0.0295
1356,-0.0927,1.0089,0.0707,-1.2788,,0.0927
1357,-0.1178,1.0218,0.0707,-1.2788,,0.1178
1358,-0.1222,1.0603,0.0835,-1.2788,,0.1222
1359,-0.0797,1.0218,0.0964,-1.3174,,0.0797
1360,0.025,1.0218,0.0964,-1.3174,,0.025
1361,0.1372,1.0346,0.1092,-1.3174,,0.1372
1362,0.1211,1.0603,0.1221,-1.3174,,0.1211
1363,0.1025,1.0475,0.135,-1.3045,,0.1025
1364,0.0822,1.0603,0.1221,-1.3302,,0.0822
1365,0.0196,1.0346,0.135,-1.2917,,0.0196
1366,-0.0563,1.0603,0.135,-1.2917,,0.0563
1367,0.0013,1.0603,0.135,-1.2531,,0.0013
1368,0.0741,1.0603,0.1221,-1.2403,,0.0741
1369,0.0138,1.0732,0.1221,-1.2531,,0.0138
1370,-0.0272,1.0732,0.1092,-1.2403,,0.0272
1371,-0.0097,1.0732,0.1092,-1.2017,,0.0097
1372,0.0166,1.0603,0.1092,-1.1632,,0.0166
1373,0.0349,1.086,0.1092,-1.1503,,0.0349
1374,0.1488,1.0732,0.0964,-1.1503,,0.1488
1375,0.2303,1.0603,0.0835,-1.1246,,0.2303
1376,0.1706,1.0603,0.0964,-1.1118,,0.1706
1377,0.0814,1.0475,0.0707,-1.0989,,0.0814
1378,0.019,1.0346,0.0707,-1.1118,,0.019
1379,0.0236,1.0475,0.0578,-1.086,,0.0236
1380,-0.0334,1.0346,0.0578,-1.086,,0.0334
1381,-0.0775,1.0346,0.045,-1.0732,,0.0775
1382,-0.0931,1.0346,0.045,-1.0475,,0.0931
1383,-0.0746,1.0475,0.045,-1.086,,0.0746
1384,-0.0485,1.0346,0.045,-1.0732,,0.0485
1385,-0.0646,1.0346,0.0321,-1.0732,,0.0646
1386,-0.1127,1.0346,0.0321,-1.0732,,0.1127
1387,-0.1393,1.0475,0.0193,-1.0989,,0.1393
1388,-0.079,1.0346,0.0321,-1.1375,,0.079
1389,0.0757,1.0346,0.0321,-1.1375,,0.0757
1390,0.1208,1.0475,0.0064,-1.1503,,0.1208
1391,0.0946,1.0603,0.0193,-1.2017,,0.0946
1392,0.1028,1.0603,0.0193,-1.2017,,0.1028
1393,0.1082,1.0732,0.0193,-1.2017,,0.1082
1394,0.0262,1.0732,0.0193,-1.2017,,0.0262
1395,-0.0631,1.0732,0.0193,-1.2146,,0.0631
1396,-0.1786,1.0732,0.0321,-1.176,,0.1786
1397,-0.259,1.0732,0.045,-1.176,,0.259
1398,-0.2127,1.0732,0.045,-1.1503,,0.2127
1399,-0.0302,1.0603,0.045,-1.0989,,0.0302
1400,0.2005,1.0603,0.0578,-1.0732,,0.2005
1401,0.2935,1.0603,0.0578,-1.0346,,0.2935
1402,0.2613,1.0603,0.0707,-1.0089,,0.2613
1403,0.1763,1.0603,0.0835,-1.0218,,0.1763
1404,0.1044,1.0603,0.0835,-1.0089,,0.1044
1405,0.039,1.0603,0.0964,-0.9961,,0.039
1406,-0.0114,1.0603,0.0964,-0.9961,,0.0114
1407,0.0166,1.0603,0.1092,-1.0346,,0.0166
1408,0.0222,1.0732,0.1092,-1.0346,,0.0222
1409,0.0606,1.086,0.1092,-1.0346,,0.0606
1410,0.0691,1.086,0.1221,-1.0732,,0.0691
1411,0.054,1.0732,0.1221,-1.0603,,0.054
1412,0.0244,1.0475,0.1221,-1.0603,,0.0244
1413,0.0624,1.0732,0.135,-1.0346,,0.0624
1414,0.0529,1.0732,0.1221,-1.0475,,0.0529
1415,0.0237,1.0603,0.1221,-1.0603,,0.0237
1416,-0.0409,1.0346,0.1221,-1.0475,,0.0409
1417,-0.0858,1.0346,0.1221,-1.0603,,0.0858
1418,-0.0925,1.0603,0.1221,-1.0475,,0.0925
1419,-0.1109,1.0218,0.1092,-1.0603,,0.1109
1420,-0.1296,0.9961,0.0964,-1.0346,,0.1296
1421,-0.1325,0.9832,0.1092,-1.0475,,0.1325
1422,-0.1396,0.9318,0.0964,-1.0475,,0.1396
1423,-0.1109,0.9704,0.0835,-1.0218,,0.1109
1424,-0.0617,0.9832,0.0835,-1.0346,,0.0617
1425,0.0006,0.9575,0.0835,-1.0218,,0.0006
1426,0.0305,0.9447,0.0707,-1.0089,,0.0305
1427,0.0768,0.9318,0.0707,-1.0218,,0.0768
1428,0.0916,0.9318,0.0707,-0.9961,,0.0916
1429,0.0133,0.8933,0.0578,-0.9961,,0.0133
1430,-0.0267,0.8933,0.0707,-0.9832,,0.0267
1431,-0.0375,0.8804,0.0707,-1.0089,,0.0375
1432,-0.0168,0.8676,0.0578,-0.9832,,0.0168
1433,0.0336,0.8804,0.0578,-0.9961,,0.0336
1434,0.0231,0.8676,0.0578,-1.0089,,0.0231
1435,0.0125,0.8418,0.0578,-0.9961,,0.0125
1436,0.0258,0.829,0.0578,-1.0089,,0.0258
1437,0.0565,0.829,0.045,-0.9832,,0.0565
1438,0.073,0.829,0.0578,-1.0089,,0.073
1439,0.1082,0.8161,0.0578,-0.9961,,0.1082
1440,0.1293,0.8033,0.0578,-1.0218,,0.1293
1441,0.1215,0.7904,0.045,-1.0346,,0.1215
1442,0.1296,0.7904,0.0578,-1.0218,,0.1296
1443,0.1608,0.7904,0.0707,-1.0089,,0.1608
1444,0.0891,0.7519,0.0707,-1.0089,,0.0891
1445,0.0182,0.7519,0.0707,-1.0218,,0.0182
1446,-0.0344,0.739,0.0707,-1.0089,,0.0344
1447,-0.0683,0.739,0.0835,-1.0218,,0.0683
1448,-0.0649,0.739,0.0835,-1.0089,,0.0649
1449,-0.0417,0.739,0.0964,-1.0218,,0.0417
1450,-0.0775,0.7133,0.0964,-1.0346,,0.0775
1451,-0.0658,0.7262,0.1221,-1.0089,,0.0658
1452,-0.0068,0.7133,0.1221,-1.0346,,0.0068
1453,-0.0379,0.7133,0.1221,-1.0346,,0.0379
1454,-0.0697,0.7005,0.1221,-1.0475,,0.0697
1455,-0.0224,0.7133,0.135,-1.0346,,0.0224
1456,-0.0551,0.7005,0.135,-1.0218,,0.0551
1457,-0.0655,0.7005,0.135,-1.0475,,0.0655
1458,-0.0081,0.7262,0.135,-1.0346,,0.0081
1459,0.0894,0.7133,0.1607,-1.0475,,0.0894
1460,0.0735,0.7133,0.1607,-1.0346,,0.0735
1461,0.0298,0.7005,0.1735,-1.0603,,0.0298
1462,0.0207,0.7133,0.1607,-1.0475,,0.0207
1463,0.0137,0.7262,0.1607,-1.0475,,0.0137
1464,-0.0062,0.7262,0.1607,-1.0603,,0.0062
1465,-0.0602,0.739,0.1607,-1.0989,,0.0602
1466,-0.0193,0.7262,0.1607,-1.086,,0.0193
1467,0.0636,0.739,0.1607,-1.0989,,0.0636
1468,0.175,0.739,0.135,-1.086,,0.175
1469,0.1786,0.7519,0.1478,-1.0989,,0.1786
1470,0.1675,0.7647,0.135,-1.1246,,0.1675
1471,0.1598,0.7647,0.135,-1.176,,0.1598
1472,0.1162,0.7904,0.135,-1.1246,,0.1162
1473,0.1015,0.8033,0.135,-1.1503,,0.1015
1474,0.0925,0.8033,0.1221,-1.1632,,0.0925
1475,0.0658,0.8161,0.135,-1.2017,,0.0658
1476,0.0302,0.829,0.135,-1.2017,,0.0302
1477,-0.0258,0.829,0.1221,-1.2146,,0.0258
1478,-0.1196,0.8418,0.1221,-1.2531,,0.1196
1479,-0.1228,0.8676,0.135,-1.2788,,0.1228
1480,-0.1116,0.8676,0.1221,-1.266,,0.1116
1481,-0.1471,0.8547,0.1092,-1.2788,,0.1471
1482,-0.1437,0.8804,0.1221,-1.3431,,0.1437
1483,-0.0175,0.8804,0.1092,-1.3045,,0.0175
1484,0.0778,0.8804,0.1092,-1.3302,,0.0778
1485,0.1428,0.8804,0.0964,-1.3302,,0.1428
1486,0.1669,0.9061,0.1092,-1.3688,,0.1669
1487,0.1356,0.9061,0.1092,-1.3431,,0.1356
1488,-0.0704,0.8933,0.1092,-1.3688,,0.0704
1489,-0.3037,0.919,0.1092,-1.356,,0.3037
1490,-0.25,0.919,0.1092,-1.3431,,0.25
1491,-0.261,0.919,0.1092,-1.3431,,0.261
1492,-0.2674,0.919,0.0964,-1.3431,,0.2674
1493,-0.0232,0.9318,0.0964,-1.3174,,0.0232
1494,0.2199,0.919,0.0964,-1.3302,,0.2199
1495,0.235,0.9318,0.0964,-1.3302,,0.235
1496,0.17,0.9447,0.0835,-1.3045,,0.17
1497,0.1116,0.9447,0.0964,-1.3174,,0.1116
1498,0.127,0.9575,0.0835,-1.3045,,0.127
1499,0.2191,0.9575,0.0835,-1.3302,,0.2191
1500,0.196,0.9447,0.0707,-1.3688,,0.196
1501,0.1578,0.9447,0.0707,-1.3431,,0.1578
1502,0.1085,0.9447,0.0835,-1.3302,,0.1085
1503,0.0833,0.9447,0.0707,-1.3431,,0.0833
1504,0.0335,0.9447,0.0707,-1.3431,,0.0335
1505,-0.0545,0.9704,0.0707,-1.3174,,0.0545
1506,-0.1069,0.9832,0.0835,-1.3174,,0.1069
1507,-0.1464,0.9704,0.0707,-1.3302,,0.1464
1508,-0.1419,0.9832,0.0964,-1.356,,0.1419
1509,-0.1293,0.9832,0.0835,-1.3302,,0.1293
1510,-0.0876,1.0218,0.0707,-1.3302,,0.0876
1511,-0.0013,1.0218,0.0707,-1.3302,,0.0013
1512,0.1397,1.0346,0.0707,-1.3302,,0.1397
1513,0.1874,1.0475,0.0964,-1.3431,,0.1874
1514,0.1304,1.0218,0.0835,-1.3431,,0.1304
1515,0.0741,1.0218,0.0707,-1.3302,,0.0741
1516,0.0753,1.0475,0.0835,-1.3174,,0.0753
1517,0.1113,1.0475,0.0835,-1.3302,,0.1113
1518,0.1972,1.0346,0.0707,-1.3045,,0.1972
1519,0.1679,1.0346,0.0707,-1.3174,,0.1679
1520,0.08,1.0346,0.0707,-1.3045,,0.08
1521,-0.0146,1.0346,0.0707,-1.3174,,0.0146
1522,-0.136,1.0346,0.0578,-1.3045,,0.136
1523,-0.1731,1.0475,0.0578,-1.3045,,0.1731
1524,-0.197,1.0475,0.0707,-1.2788,,0.197
1525,-0.1753,1.0346,0.0578,-1.3045,,0.1753
1526,-0.1559,1.0346,0.0578,-1.3045,,0.1559
1527,-0.1038,1.0475,0.045,-1.2917,,0.1038
1528,-0.0766,1.0732,0.0578,-1.3045,,0.0766
1529,0.0177,1.0475,0.045,-1.3174,,0.0177
1530,-0.0045,1.0603,0.0578,-1.2788,,0.0045
1531,-0.0108,1.0346,0.0578,-1.3045,,0.0108
1532,0.0929,1.0475,0.0578,-1.266,,0.0929
1533,0.1623,1.0603,0.0578,-1.3174,,0.1623
1534,0.3756,1.0475,0.0707,-1.2788,,0.3756
1535,0.3932,1.0475,0.0578,-1.2917,,0.3932
1536,0.3546,1.0346,0.0578,-1.266,,0.3546
1537,0.195,1.0089,0.0835,-1.266,,0.195
1538,0.0739,0.9961,0.0707,-1.2531,,0.0739
1539,0.0353,1.0218,0.0707,-1.2531,,0.0353
1540,-0.0034,1.0089,0.0707,-1.2531,,0.0034
1541,-0.0157,0.9961,0.0578,-1.2403,,0.0157
1542,-0.0801,1.0089,0.0578,-1.2274,,0.0801
1543,-0.1031,1.0089,0.0578,-1.2403,,0.1031
1544,-0.183,0.9832,0.0578,-1.2403,,0.183
1545,-0.2021,0.9832,0.0707,-1.2146,,0.2021
1546,-0.1759,0.9704,0.0707,-1.2274,,0.1759
1547,-0.1781,0.9832,0.0707,-1.2403,,0.1781
1548,-0.0774,0.9704,0.0578,-1.2274,,0.0774
1549,-0.0628,0.9704,0.0707,-1.2146,,0.0628
1550,-0.0525,0.9575,0.0578,-1.2017,,0.0525
1551,0.0163,0.9447,0.0707,-1.2146,,0.0163
1552,0.0005,0.9575,0.0578,-1.2017,,0.0005
1553,0.1482,0.9318,0.0707,-1.2146,,0.1482
1554,0.1602,0.919,0.0835,-1.2274,,0.1602
1555,0.1193,0.9318,0.0835,-1.2146,,0.1193
1556,0.1191,0.919,0.0578,-1.2274,,0.1191
1557,0.0957,0.8933,0.0578,-1.1889,,0.0957
1558,0.1478,0.919,0.0578,-1.2403,,0.1478
1559,0.1441,0.9575,0.0578,-1.2274,,0.1441
1560,0.1179,0.919,0.0578,-1.2017,,0.1179
1561,0.0991,0.8804,0.0578,-1.2017,,0.0991
1562,0.0873,0.9061,0.0707,-1.2017,,0.0873
1563,0.1092,0.8933,0.0707,-1.2403,,0.1092
1564,0.0665,0.8933,0.0578,-1.2403,,0.0665
1565,0.1042,0.8933,0.0707,-1.2403,,0.1042
1566,0.07,0.8933,0.0578,-1.2531,,0.07
1567,0.0175,0.8804,0.0578,-1.2531,,0.0175
1568,-0.0218,0.8547,0.045,-1.2531,,0.0218
1569,-0.0475,0.8418,0.0578,-1.2788,,0.0475
1570,-0.0493,0.8033,0.0707,-1.266,,0.0493
1571,-0.08,0.7519,0.0578,-1.3045,,0.08
1572,-0.0446,0.7262,0.045,-1.3045,,0.0446
1573,-0.0072,0.7519,0.0321,-1.266,,0.0072
1574,-0.016,0.7647,0.0064,-1.2917,,0.016
1575,-0.0253,0.8033,0.0064,-1.3045,,0.0253
1576,-0.0147,0.8161,0.0193,-1.3045,,0.0147
1577,-0.008,0.8161,0.0321,-1.3045,,0.008
1578,-0.0092,0.829,0.0578,-1.3045,,0.0092
1579,0.003,0.8161,0.0835,-1.3174,,0.003
1580,-0.013,0.829,0.0964,-1.2917,,0.013
1581,-0.0308,0.8033,0.0964,-1.3174,,0.0308
1582,-0.0671,0.7904,0.1092,-1.2917,,0.0671
1583,-0.0664,0.7776,0.0964,-1.2788,,0.0664
1584,-0.068,0.7776,0.1092,-1.2917,,0.068
1585,-0.0779,0.7776,0.1221,-1.2917,,0.0779
1586,-0.044,0.7519,0.1092,-1.2788,,0.044
1587,-0.0673,0.739,0.0964,-1.3045,,0.0673
1588,0.0038,0.739,0.0964,-1.2917,,0.0038
1589,0.1067,0.7005,0.0964,-1.2788,,0.1067
1590,0.0895,0.7133,0.0964,-1.2788,,0.0895
1591,0.0874,0.7005,0.1092,-1.2788,,0.0874
1592,0.1345,0.6876,0.0964,-1.2788,,0.1345
1593,0.1543,0.7005,0.0964,-1.2788,,0.1543
1594,0.125,0.7005,0.0964,-1.2917,,0.125
1595,-0.0144,0.6876,0.0835,-1.266,,0.0144
1596,-0.0869,0.7005,0.0835,-1.2788,,0.0869
1597,-0.1341,0.6748,0.0964,-1.2788,,0.1341
1598,-0.168,0.6876,0.0835,-1.266,,0.168
1599,-0.1749,0.6748,0.0835,-1.2531,,0.1749
1600,-0.1583,0.6748,0.0835,-1.266,,0.1583
1601,-0.0365,0.6876,0.0835,-1.266,,0.0365
1602,0.0415,0.7005,0.0964,-1.2403,,0.0415
1603,-0.0133,0.7005,0.0707,-1.2917,,0.0133
1604,0.0507,0.7005,0.0835,-1.266,,0.0507
1605,0.1759,0.7005,0.0835,-1.2788,,0.1759
1606,0.2302,0.7005,0.0707,-1.266,,0.2302
1607,0.1699,0.6876,0.0707,-1.266,,0.1699
1608,0.179,0.6748,0.0707,-1.266,,0.179
1609,0.1647,0.6876,0.0707,-1.2788,,0.1647
1610,0.1856,0.6619,0.0707,-1.3174,,0.1856
1611,0.2255,0.6748,0.0578,-1.2531,,0.2255
1612,0.2246,0.6491,0.045,-1.266,,0.2246
1613,0.2183,0.6748,0.0321,-1.2531,,0.2183
1614,0.1568,0.6748,0.045,-1.266,,0.1568
1615,0.0749,0.6619,0.0321,-1.2403,,0.0749
1616,-0.0278,0.6748,0.045,-1.2403,,0.0278
1617,-0.1064,0.6619,0.045,-1.266,,0.1064
1618,-0.0456,0.6748,0.0321,-1.266,,0.0456
1619,0.0023,0.6619,0.0321,-1.2531,,0.0023
1620,-0.0051,0.6491,0.0321,-1.2531,,0.0051
1621,-0.0005,0.6362,0.045,-1.2403,,0.0005
1622,-0.0338,0.6234,0.045,-1.2531,,0.0338
1623,-0.0669,0.6234,0.045,-1.2146,,0.0669
1624,-0.0777,0.6234,0.0321,-1.266,,0.0777
1625,-0.1258,0.6362,0.045,-1.2531,,0.1258
1626,-0.138,0.6234,0.045,-1.2403,,0.138
1627,-0.1783,0.6362,0.045,-1.2274,,0.1783
1628,-0.1387,0.6362,0.045,-1.2403,,0.1387
1629,-0.1165,0.6362,0.045,-1.2403,,0.1165
1630,-0.1367,0.6362,0.0578,-1.2274,,0.1367
1631,-0.1231,0.6362,0.0578,-1.2274,,0.1231
1632,-0.0339,0.6234,0.0835,-1.2403,,0.0339
1633,0.0523,0.6234,0.0578,-1.2274,,0.0523
1634,0.1192,0.6234,0.0578,-1.2531,,0.1192
1635,0.1467,0.6234,0.0578,-1.2403,,0.1467
1636,0.2122,0.6491,0.0707,-1.266,,0.2122
1637,0.2525,0.6362,0.0578,-1.266,,0.2525
1638,0.2577,0.6362,0.045,-1.2917,,0.2577
1639,0.1874,0.6491,0.0578,-1.2788,,0.1874
1640,0.1398,0.6491,0.0578,-1.2788,,0.1398
1641,0.131,0.6491,0.045,-1.3045,,0.131
1642,0.1428,0.6491,0.045,-1.3174,,0.1428
1643,0.109,0.6619,0.045,-1.3431,,0.109
1644,0.1105,0.6619,0.0321,-1.356,,0.1105
1645,0.0898,0.6619,0.0193,-1.3431,,0.0898
1646,-0.0741,0.6619,0.0321,-1.3431,,0.0741
1647,-0.1402,0.6619,0.0321,-1.356,,0.1402
1648,-0.1618,0.6748,0.0321,-1.3945,,0.1618
1649,-0.1015,0.6748,0.0193,-1.4074,,0.1015
1650,-0.0753,0.6876,0.0193,-1.3817,,0.0753
1651,-0.1712,0.6748,0.0064,-1.4074,,0.1712
1652,-0.1677,0.6748,0.0193,-1.4074,,0.1677
1653,-0.1315,0.7133,0.0193,-1.4074,,0.1315
1654,-0.122,0.6876,0.0064,-1.4074,,0.122
1655,-0.1838,0.6748,0.0193,-1.4202,,0.1838
1656,-0.1781,0.6876,0.0193,-1.4331,,0.1781
1657,-0.1026,0.7005,0.0064,-1.4331,,0.1026
1658,-0.0787,0.7005,0.0064,-1.4202,,0.0787
1659,0.0371,0.7133,0.0064,-1.4202,,0.0371
1660,0.2087,0.7133,0.0193,-1.4459,,0.2087
1661,0.2116,0.7133,0.0193,-1.4459,,0.2116
1662,0.102,0.739,0.0193,-1.4459,,0.102
1663,0.0189,0.739,0.0193,-1.4459,,0.0189
1664,0.0477,0.739,0.0064,-1.4588,,0.0477
1665,0.081,0.7519,0.0064,-1.4588,,0.081
1666,0.1673,0.7519,0.0193,-1.4331,,0.1673
1667,0.1638,0.7519,0.0193,-1.4459,,0.1638
1668,0.0246,0.7519,0.0193,-1.4459,,0.0246
1669,0.0211,0.739,0.0321,-1.4459,,0.0211
1670,0.0878,0.7262,0.045,-1.4588,,0.0878
1671,0.1657,0.7262,0.045,-1.4588,,0.1657
1672,0.2398,0.739,0.045,-1.4716,,0.2398
1673,0.3027,0.7262,0.0578,-1.4845,,0.3027
1674,0.1279,0.7262,0.0578,-1.4716,,0.1279
1675,0.0177,0.739,0.0578,-1.4716,,0.0177
1676,0.0166,0.739,0.0707,-1.4716,,0.0166
1677,-0.0283,0.739,0.0578,-1.4588,,0.0283
1678,-0.0841,0.739,0.0578,-1.4459,,0.0841
1679,-0.0761,0.7647,0.0707,-1.4588,,0.0761
1680,-0.014,0.7647,0.0707,-1.4716,,0.014
1681,-0.114,0.7519,0.0707,-1.4588,,0.114
1682,0.0335,0.7647,0.0835,-1.4331,,0.0335
1683,0.0888,0.7647,0.0707,-1.4588,,0.0888
1684,0.0639,0.7519,0.0707,-1.4331,,0.0639
1685,0.0027,0.739,0.0964,-1.4459,,0.0027
1686,0.0676,0.7262,0.0835,-1.4459,,0.0676
1687,0.0803,0.7262,0.0964,-1.4459,,0.0803
1688,0.0502,0.7262,0.0835,-1.4459,,0.0502
1689,-0.0453,0.7133,0.0835,-1.4331,,0.0453
1690,-0.1448,0.7262,0.0964,-1.4202,,0.1448
1691,-0.0814,0.7262,0.0964,-1.4074,,0.0814
1692,-0.0163,0.7005,0.1092,-1.4202,,0.0163
1693,0.0503,0.6876,0.1092,-1.4202,,0.0503
1694,0.0717,0.7005,0.1092,-1.3945,,0.0717
1695,0.0356,0.6876,0.1092,-1.4331,,0.0356
1696,0.0244,0.6748,0.0964,-1.4202,,0.0244
1697,0.0376,0.6748,0.1092,-1.4202,,0.0376
1698,0.0773,0.7005,0.0835,-1.4074,,0.0773
1699,0.0712,0.6619,0.1092,-1.4331,,0.0712
1700,0.0331,0.6362,0.1092,-1.4331,,0.0331
1701,0.0262,0.6362,0.1092,-1.4202,,0.0262
1702,0.0475,0.6362,0.0964,-1.4074,,0.0475
1703,0.0598,0.6234,0.1092,-1.4202,,0.0598
1704,0.0488,0.6105,0.0964,-1.4074,,0.0488
1705,0.0401,0.6234,0.0964,-1.3945,,0.0401
1706,0.0233,0.5976,0.0835,-1.4202,,0.0233
1707,0.0222,0.5976,0.0964,-1.4074,,0.0222
1708,-0.0101,0.5976,0.1092,-1.4074,,0.0101
1709,-0.0168,0.5719,0.1092,-1.4074,,0.0168
1710,-0.0371,0.5719,0.0964,-1.4331,,0.0371
1711,-0.0064,0.5591,0.0835,-1.4074,,0.0064
1712,0.0137,0.5591,0.0835,-1.4202,,0.0137
1713,0.0254,0.5591,0.0707,-1.4202,,0.0254
1714,0.0676,0.5591,0.0707,-1.4331,,0.0676
1715,0.0882,0.5334,0.0835,-1.4459,,0.0882
1716,0.1068,0.5334,0.0964,-1.4459,,0.1068
1717,0.1063,0.5205,0.0835,-1.4588,,0.1063
1718,0.0916,0.5077,0.0835,-1.4331,,0.0916
1719,0.0379,0.5077,0.0707,-1.4716,,0.0379
1720,-0.0138,0.4948,0.0707,-1.4331,,0.0138
1721,-0.0592,0.4948,0.0835,-1.4331,,0.0592
1722,-0.0502,0.4948,0.0964,-1.4588,,0.0502
1723,-0.0636,0.482,0.0835,-1.4074,,0.0636
1724,-0.0708,0.4691,0.0964,-1.4331,,0.0708
1725,-0.0275,0.4691,0.0835,-1.4459,,0.0275
1726,0.0056,0.4434,0.0964,-1.4459,,0.0056
1727,0.0031,0.4563,0.0964,-1.4459,,0.0031
1728,0.0113,0.4563,0.0964,-1.4459,,0.0113
1729,0.0295,0.4434,0.0964,-1.4331,,0.0295
1730,0.0467,0.4177,0.0964,-1.4331,,0.0467
1731,0.0839,0.4177,0.1092,-1.4202,,0.0839
1732,0.0709,0.4177,0.1092,-1.4588,,0.0709
1733,0.0247,0.4177,0.0964,-1.4459,,0.0247
1734,-0.0202,0.4049,0.0835,-1.4588,,0.0202
1735,0.0312,0.4177,0.0964,-1.4588,,0.0312
1736,-0.0306,0.4177,0.0835,-1.4459,,0.0306
1737,-0.1229,0.4049,0.1092,-1.4331,,0.1229
1738,-0.0676,0.392,0.1092,-1.4331,,0.0676
1739,-0.0041,0.392,0.1092,-1.4202,,0.0041
1740,0.0325,0.4049,0.1221,-1.4331,,0.0325
1741,0.0778,0.392,0.0964,-1.4202,,0.0778
1742,0.048,0.4049,0.1092,-1.4331,,0.048
1743,0.0272,0.4049,0.0964,-1.4202,,0.0272
1744,0.0461,0.392,0.0964,-1.4459,,0.0461
1745,0.0486,0.3792,0.0964,-1.4074,,0.0486
1746,0.0009,0.3792,0.1092,-1.4202,,0.0009
1747,-0.0096,0.3792,0.0964,-1.4074,,0.0096
1748,0.0275,0.392,0.1092,-1.4202,,0.0275
1749,-0.017,0.3663,0.0835,-1.4331,,0.017
1750,-0.1235,0.3792,0.0835,-1.4459,,0.1235
1751,-0.191,0.392,0.0964,-1.4459,,0.191
1752,-0.2083,0.392,0.0964,-1.4331,,0.2083
1753,-0.1722,0.4177,0.0964,-1.4331,,0.1722
1754,-0.1737,0.4049,0.0964,-1.4074,,0.1737
1755,-0.0998,0.392,0.0964,-1.4074,,0.0998
1756,-0.0272,0.3792,0.0964,-1.4202,,0.0272
1757,0.0413,0.392,0.0964,-1.4331,,0.0413
1758,0.0946,0.392,0.0835,-1.4202,,0.0946
1759,0.2219,0.392,0.0835,-1.4202,,0.2219
1760,0.3006,0.4049,0.0835,-1.4331,,0.3006
1761,0.3526,0.4049,0.0835,-1.4331,,0.3526
1762,0.3745,0.4049,0.0835,-1.4716,,0.3745
1763,0.3368,0.4049,0.0835,-1.4459,,0.3368
1764,0.2716,0.4177,0.0707,-1.4588,,0.2716
1765,0.1288,0.4049,0.0835,-1.4716,,0.1288
1766,0.0343,0.4177,0.0835,-1.4973,,0.0343
1767,-0.1107,0.4177,0.0835,-1.4845,,0.1107
1768,-0.1533,0.4563,0.0835,-1.4588,,0.1533
1769,-0.0905,0.4306,0.0835,-1.4716,,0.0905
1770,-0.062,0.4177,0.0964,-1.4588,,0.062
1771,-0.0144,0.4306,0.0964,-1.4588,,0.0144
1772,-0.0374,0.4177,0.0964,-1.4973,,0.0374
1773,-0.0653,0.4434,0.0964,-1.4845,,0.0653
1774,-0.0732,0.4434,0.0964,-1.5102,,0.0732
1775,-0.0998,0.4563,0.0964,-1.4845,,0.0998
1776,-0.1239,0.4563,0.0964,-1.4973,,0.1239
1777,-0.1129,0.4434,0.0964,-1.523,,0.1129
1778,-0.0349,0.4434,0.1092,-1.5102,,0.0349
1779,0.0434,0.4434,0.1092,-1.4845,,0.0434
1780,0.1373,0.4563,0.0964,-1.4973,,0.1373
1781,0.1745,0.4434,0.0964,-1.4973,,0.1745
1782,0.2085,0.4563,0.0964,-1.4973,,0.2085
1783,0.1448,0.4691,0.0835,-1.4845,,0.1448
1784,0.0492,0.4563,0.0964,-1.523,,0.0492
1785,-0.0507,0.4563,0.1092,-1.5102,,0.0507
1786,-0.0651,0.4691,0.1092,-1.4845,,0.0651
1787,-0.1247,0.4691,0.1092,-1.5102,,0.1247
1788,-0.2312,0.4563,0.1092,-1.4845,,0.2312
1789,-0.2471,0.4691,0.0964,-1.4973,,0.2471
1790,-0.1899,0.482,0.1092,-1.4973,,0.1899
1791,-0.04,0.4691,0.0964,-1.4973,,0.04
1792,0.0987,0.482,0.0964,-1.4845,,0.0987
1793,0.1843,0.4691,0.0964,-1.4973,,0.1843
1794,0.1759,0.482,0.1092,-1.5102,,0.1759
1795,0.2257,0.4948,0.0964,-1.5102,,0.2257
1796,0.2235,0.4948,0.0835,-1.4973,,0.2235
1797,0.1658,0.482,0.0964,-1.4973,,0.1658
1798,0.0964,0.5334,0.0707,-1.4973,,0.0964
1799,0.1052,0.5205,0.0835,-1.4973,,0.1052
1800,0.1299,0.5077,0.0835,-1.4845,,0.1299
1801,0.0958,0.5077,0.0964,-1.4845,,0.0958
1802,0.0384,0.5334,0.0835,-1.4845,,0.0384
1803,0.0081,0.5205,0.0964,-1.4973,,0.0081
1804,-0.0127,0.5334,0.0835,-1.4845,,0.0127
1805,0.0093,0.5462,0.0707,-1.4716,,0.0093
1806,-0.0065,0.5462,0.0707,-1.4973,,0.0065
1807,-0.0657,0.5462,0.0707,-1.4845,,0.0657
1808,-0.0788,0.5591,0.0707,-1.4973,,0.0788
1809,-0.0724,0.5719,0.0835,-1.4845,,0.0724
1810,-0.0715,0.5591,0.0707,-1.5102,,0.0715
1811,-0.0488,0.5719,0.0707,-1.4716,,0.0488
1812,-0.0008,0.5719,0.0707,-1.4973,,0.0008
1813,0.001,0.5976,0.0707,-1.4845,,0.001
1814,0.0007,0.5848,0.0707,-1.5102,,0.0007
1815,0.0339,0.5848,0.0707,-1.4845,,0.0339
1816,-0.0148,0.5976,0.0707,-1.4716,,0.0148
1817,-0.0144,0.6105,0.0835,-1.4716,,0.0144
1818,-0.0278,0.6105,0.0707,-1.4588,,0.0278
1819,-0.0295,0.6105,0.0835,-1.4716,,0.0295
1820,-0.0025,0.6234,0.0707,-1.4845,,0.0025
1821,0.0149,0.6105,0.0707,-1.4716,,0.0149
1822,-0.0497,0.6105,0.0707,-1.4202,,0.0497
1823,-0.0936,0.6234,0.0707,-1.4331,,0.0936
1824,-0.1239,0.6362,0.0835,-1.4588,,0.1239
1825,-0.1173,0.6362,0.0707,-1.4588,,0.1173
1826,-0.0343,0.6234,0.0835,-1.4331,,0.0343
1827,0.0726,0.6491,0.0707,-1.4459,,0.0726
1828,0.1713,0.6619,0.0835,-1.4202,,0.1713
1829,0.1786,0.6491,0.0707,-1.4459,,0.1786
1830,0.1796,0.6362,0.0578,-1.4331,,0.1796
1831,0.146,0.6491,0.0707,-1.4331,,0.146
1832,0.0669,0.6491,0.0835,-1.4202,,0.0669
1833,0.0302,0.6619,0.0835,-1.4459,,0.0302
1834,0.0138,0.6619,0.0707,-1.4331,,0.0138
1835,0.0741,0.6619,0.0707,-1.4331,,0.0741
1836,0.0806,0.6619,0.0707,-1.3945,,0.0806
1837,0.0848,0.6619,0.0707,-1.4202,,0.0848
1838,0.034,0.6619,0.0835,-1.4202,,0.034
1839,0.0089,0.6491,0.0707,-1.4202,,0.0089
1840,-0.1045,0.6491,0.0964,-1.4074,,0.1045
1841,-0.2238,0.6619,0.0707,-1.4202,,0.2238
1842,-0.0959,0.6619,0.0835,-1.4074,,0.0959
1843,-0.0283,0.6748,0.0707,-1.4202,,0.0283
1844,0.0193,0.6491,0.0707,-1.4202,,0.0193
1845,0.0316,0.6748,0.0578,-1.4331,,0.0316
1846,-0.0245,0.6748,0.0707,-1.4074,,0.0245
1847,-0.0409,0.6619,0.0707,-1.4202,,0.0409
1848,-0.1054,0.6619,0.0707,-1.3945,,0.1054
1849,-0.1135,0.6748,0.0835,-1.4074,,0.1135
1850,-0.0478,0.6748,0.0578,-1.4202,,0.0478
1851,0.005,0.6748,0.045,-1.4459,,0.005
1852,0.0189,0.6876,0.0578,-1.4202,,0.0189
1853,0.0179,0.6876,0.045,-1.4074,,0.0179
1854,-0.0114,0.6619,0.0578,-1.4331,,0.0114
1855,0.0007,0.6748,0.0578,-1.4074,,0.0007
1856,0.0093,0.6619,0.0578,-1.4202,,0.0093
1857,-0.0038,0.6748,0.045,-1.4074,,0.0038
1858,-0.0031,0.6876,0.045,-1.4202,,0.0031
1859,-0.0771,0.6748,0.045,-1.4074,,0.0771
1860,-0.0602,0.6748,0.0321,-1.4074,,0.0602
1861,-0.0579,0.6876,0.045,-1.3945,,0.0579
1862,-0.0365,0.6876,0.045,-1.3817,,0.0365
1863,0.0089,0.6876,0.0321,-1.3817,,0.0089
1864,0.0708,0.6876,0.045,-1.3945,,0.0708
1865,0.1548,0.7005,0.045,-1.3945,,0.1548
1866,0.2327,0.7005,0.045,-1.4074,,0.2327
1867,0.2528,0.7005,0.0321,-1.3945,,0.2528
1868,0.2252,0.7262,0.0321,-1.3817,,0.2252
1869,0.1306,0.7005,0.045,-1.4074,,0.1306
1870,0.0374,0.7005,0.045,-1.3817,,0.0374
1871,-0.0513,0.7133,0.0321,-1.3817,,0.0513
1872,-0.0512,0.7005,0.0193,-1.4074,,0.0512
1873,-0.0152,0.7005,0.045,-1.3945,,0.0152
1874,0.0411,0.7133,0.0193,-1.3688,,0.0411
1875,0.0797,0.7262,0.0321,-1.356,,0.0797
1876,0.065,0.7133,0.0193,-1.356,,0.065
1877,0.0457,0.7133,0.0193,-1.3688,,0.0457
1878,0.0001,0.7133,0.0193,-1.3431,,0.0001
1879,-0.0888,0.7262,0.0321,-1.356,,0.0888
1880,-0.1187,0.7133,0.0193,-1.3431,,0.1187
1881,-0.0877,0.7262,0.0321,-1.3302,,0.0877
1882,-0.0204,0.739,0.0064,-1.3174,,0.0204
1883,-0.0009,0.739,0.0064,-1.3174,,0.0009
1884,0.0198,0.739,0.0193,-1.3302,,0.0198
1885,0.0706,0.7262,0.0064,-1.3174,,0.0706
1886,0.0528,0.7262,0.0193,-1.3431,,0.0528
1887,0.062,0.7262,0.0064,-1.3302,,0.062
1888,0.0512,0.739,0.0064,-1.3302,,0.0512
1889,0.0258,0.7519,0.0064,-1.3045,,0.0258
1890,0.0122,0.739,-0.0064,-1.3302,,0.0122
1891,-0.0595,0.7519,0.0064,-1.3302,,0.0595
1892,-0.0525,0.739,0.0064,-1.2917,,0.0525
1893,-0.0552,0.7519,0.0193,-1.3045,,0.0552
1894,-0.079,0.7519,0.0193,-1.3045,,0.079
1895,-0.0771,0.7519,0.0193,-1.3174,,0.0771
1896,-0.0231,0.7647,0.0064,-1.3045,,0.0231
1897,0.006,0.7647,0.0064,-1.3302,,0.006
1898,0.0211,0.7776,-0.0064,-1.3174,,0.0211
1899,0.0334,0.7776,-0.0064,-1.3045,,0.0334
1900,0.0308,0.7776,0.0064,-1.2917,,0.0308
1901,0.0452,0.7647,0.0193,-1.3045,,0.0452
1902,0.0562,0.7519,0.0064,-1.3045,,0.0562
1903,0.0226,0.7647,0.0064,-1.2917,,0.0226
1904,-0.0401,0.7776,-0.0064,-1.2788,,0.0401
1905,-0.04,0.7776,-0.0064,-1.2917,,0.04
1906,-0.0287,0.7776,-0.0064,-1.2917,,0.0287
1907,-0.0171,0.7776,-0.0064,-1.2788,,0.0171
1908,-0.023,0.7904,0.0064,-1.266,,0.023
1909,0.0417,0.7904,0.0064,-1.266,,0.0417
1910,0.0654,0.7904,0.0064,-1.2788,,0.0654
1911,0.0626,0.8033,-0.0064,-1.2788,,0.0626
1912,0.0497,0.7904,-0.0064,-1.266,,0.0497
1913,0.0836,0.8161,-0.0193,-1.2788,,0.0836
1914,0.1321,0.8033,-0.0193,-1.2788,,0.1321
1915,0.0292,0.8033,-0.0064,-1.3045,,0.0292
1916,0.0673,0.8033,-0.0064,-1.2788,,0.0673
1917,0.0644,0.8161,-0.0064,-1.266,,0.0644
1918,0.0145,0.8033,-0.0193,-1.266,,0.0145
1919,-0.0349,0.8161,-0.0193,-1.266,,0.0349
1920,-0.1422,0.829,-0.0064,-1.2531,,0.1422
1921,-0.1441,0.829,-0.0193,-1.2788,,0.1441
1922,-0.0904,0.8418,-0.0064,-1.2917,,0.0904
1923,-0.0921,0.8547,-0.0193,-1.2788,,0.0921
1924,-0.0631,0.8547,-0.0193,-1.2531,,0.0631
1925,-0.0428,0.8418,0.0064,-1.266,,0.0428
1926,-0.0105,0.8547,-0.0064,-1.266,,0.0105
1927,0.0001,0.8676,-0.0064,-1.266,,0.0001
1928,0.0237,0.8547,-0.0321,-1.2788,,0.0237
1929,0.0324,0.8676,-0.0321,-1.2788,,0.0324
1930,0.0316,0.8804,-0.0064,-1.2788,,0.0316
1931,0.0416,0.8804,-0.0193,-1.2531,,0.0416
1932,0.0299,0.8676,-0.0193,-1.266,,0.0299
1933,0.0017,0.8547,-0.0193,-1.2788,,0.0017
1934,-0.0015,0.8676,-0.0193,-1.2531,,0.0015
1935,0.0147,0.8804,-0.0193,-1.2531,,0.0147
1936,0.0457,0.8933,-0.0321,-1.2403,,0.0457
1937,0.0441,0.8933,-0.0321,-1.2403,,0.0441
1938,0.0327,0.8933,-0.0321,-1.2274,,0.0327
1939,0.0499,0.9061,-0.045,-1.2146,,0.0499
1940,0.0483,0.8933,-0.0321,-1.2146,,0.0483
1941,0.0434,0.8933,-0.0321,-1.2274,,0.0434
1942,0.0412,0.8933,-0.045,-1.2274,,0.0412
1943,0.0446,0.8933,-0.0321,-1.2017,,0.0446
1944,0.0471,0.9061,-0.0707,-1.2146,,0.0471
1945,0.0164,0.919,-0.0578,-1.2274,,0.0164
1946,0.0524,0.9061,-0.0578,-1.2017,,0.0524
1947,0.0429,0.919,-0.045,-1.2017,,0.0429
1948,-0.0214,0.919,-0.045,-1.2017,,0.0214
1949,-0.077,0.919,-0.0707,-1.2146,,0.077
1950,-0.0298,0.919,-0.0578,-1.2017,,0.0298
1951,-0.0327,0.919,-0.0578,-1.2017,,0.0327
1952,-0.045,0.919,-0.0707,-1.2146,,0.045
1953,-0.0081,0.9318,-0.0707,-1.2146,,0.0081
1954,0.0352,0.9318,-0.0707,-1.2403,,0.0352
1955,0.0543,0.919,-0.0707,-1.2017,,0.0543
1956,0.0518,0.9447,-0.045,-1.176,,0.0518
1957,0.062,0.919,-0.0707,-1.1889,,0.062
1958,0.0466,0.9318,-0.0578,-1.2146,,0.0466
1959,0.0426,0.9318,-0.0707,-1.2146,,0.0426
1960,-0.0618,0.919,-0.0707,-1.1889,,0.0618
1961,-0.128,0.919,-0.0707,-1.1889,,0.128
1962,-0.0962,0.919,-0.0707,-1.176,,0.0962
1963,-0.0336,0.9061,-0.0578,-1.176,,0.0336
1964,0.035,0.9061,-0.045,-1.176,,0.035
1965,0.0094,0.919,-0.0707,-1.1889,,0.0094
1966,-0.0552,0.9061,-0.045,-1.176,,0.0552
1967,-0.0353,0.9061,-0.0578,-1.1632,,0.0353
1968,0.0023,0.9318,-0.0578,-1.176,,0.0023
1969,0.0177,0.919,-0.0707,-1.1632,,0.0177
1970,0.0141,0.919,-0.045,-1.176,,0.0141
1971,0.0437,0.9061,-0.045,-1.176,,0.0437
1972,0.0343,0.919,-0.0321,-1.1632,,0.0343
1973,0.0435,0.919,-0.0321,-1.1503,,0.0435
1974,0.0667,0.919,-0.0321,-1.1632,,0.0667
1975,0.0812,0.9061,-0.0578,-1.1503,,0.0812
1976,0.0655,0.9061,-0.0578,-1.1632,,0.0655
1977,0.0269,0.9061,-0.045,-1.176,,0.0269
1978,0.0188,0.9061,-0.0321,-1.1375,,0.0188
1979,0.0405,0.9061,-0.045,-1.1246,,0.0405
1980,0.0391,0.9061,-0.045,-1.1375,,0.0391
1981,-0.0156,0.9061,-0.0578,-1.1375,,0.0156
1982,0.0177,0.9061,-0.0578,-1.1503,,0.0177
1983,0.0355,0.9318,-0.045,-1.1246,,0.0355
1984,0.0182,0.919,-0.0578,-1.1375,,0.0182
1985,0.0151,0.9061,-0.0578,-1.1375,,0.0151
1986,-0.0415,0.9061,-0.045,-1.1246,,0.0415
1987,-0.0152,0.919,-0.0321,-1.1375,,0.0152
1988,0.0101,0.919,-0.0321,-1.1375,,0.0101
1989,-0.0302,0.919,-0.0578,-1.1246,,0.0302
1990,-0.0538,0.919,-0.0578,-1.1375,,0.0538
1991,-0.0907,0.919,-0.0707,-1.1503,,0.0907
1992,-0.0727,0.919,-0.0707,-1.1246,,0.0727
1993,0.0065,0.919,-0.0578,-1.1632,,0.0065
1994,0.0419,0.9061,-0.0578,-1.1503,,0.0419
1995,0.0393,0.9061,-0.0707,-1.1632,,0.0393
1996,0.0075,0.919,-0.0578,-1.176,,0.0075
1997,-0.0667,0.9061,-0.0707,-1.1503,,0.0667
1998,-0.097,0.9447,-0.0707,-1.1632,,0.097
1999,-0.0512,0.919,-0.0707,-1.176,,0.0512
2000,-0.0163,0.919,-0.0835,-1.1632,,0.0163
2001,0.0078,0.919,-0.0707,-1.1632,,0.0078
2002,0.0336,0.919,-0.0707,-1.1632,,0.0336
2003,0.068,0.919,-0.0707,-1.1503,,0.068
2004,0.0775,0.919,-0.0835,-1.1632,,0.0775
2005,0.0724,0.8933,-0.0707,-1.1889,,0.0724
2006,0.0544,0.9061,-0.0835,-1.2017,,0.0544
2007,0.0334,0.9061,-0.0964,-1.176,,0.0334
2008,-0.0515,0.8933,-0.0964,-1.2017,,0.0515
2009,-0.0323,0.8933,-0.0964,-1.1632,,0.0323
2010,0.0153,0.8804,-0.0964,-1.1632,,0.0153
2011,0.061,0.8804,-0.0835,-1.1889,,0.061
2012,0.0724,0.8804,-0.0964,-1.1889,,0.0724
2013,0.0149,0.8804,-0.1092,-1.1889,,0.0149
2014,0.0072,0.8676,-0.0964,-1.1889,,0.0072
2015,0.0301,0.8547,-0.0964,-1.1889,,0.0301
2016,-0.0412,0.8418,-0.0964,-1.1632,,0.0412
2017,-0.1031,0.829,-0.0835,-1.1632,,0.1031
2018,-0.0907,0.829,-0.0707,-1.1503,,0.0907
2019,-0.0494,0.8161,-0.0835,-1.1632,,0.0494
2020,-0.0438,0.8161,-0.0835,-1.176,,0.0438
2021,-0.0145,0.8161,-0.0835,-1.1889,,0.0145
2022,0.0243,0.8033,-0.0835,-1.1632,,0.0243
2023,0.0587,0.829,-0.0964,-1.1632,,0.0587
2024,0.0825,0.7776,-0.0835,-1.1503,,0.0825
2025,0.1301,0.7647,-0.0835,-1.1375,,0.1301
2026,0.1544,0.7519,-0.0707,-1.1503,,0.1544
2027,0.0895,0.739,-0.0835,-1.176,,0.0895
2028,0.0461,0.739,-0.0835,-1.1503,,0.0461
2029,-0.0539,0.739,-0.0835,-1.1503,,0.0539
2030,-0.1219,0.7262,-0.0835,-1.1375,,0.1219
2031,-0.1295,0.7133,-0.0707,-1.1375,,0.1295
2032,-0.0968,0.7133,-0.0707,-1.1503,,0.0968
2033,-0.0437,0.7005,-0.0578,-1.1246,,0.0437
2034,0.0074,0.7005,-0.0578,-1.1246,,0.0074
2035,0.0232,0.7005,-0.0707,-1.1246,,0.0232
2036,0.0062,0.7005,-0.0578,-1.1375,,0.0062
2037,-0.0142,0.6876,-0.0835,-1.1246,,0.0142
2038,0.0113,0.7262,-0.0707,-1.1246,,0.0113
2039,0.0563,0.7005,-0.0578,-1.0989,,0.0563
2040,0.1313,0.6748,-0.0707,-1.1118,,0.1313
2041,0.1591,0.6748,-0.045,-1.1375,,0.1591
2042,0.1482,0.6748,-0.045,-1.1118,,0.1482
2043,0.1365,0.6748,-0.0707,-1.1118,,0.1365
2044,0.0657,0.6748,-0.045,-1.1118,,0.0657
2045,-0.0437,0.6748,-0.045,-1.1375,,0.0437
2046,-0.1519,0.6876,-0.0321,-1.0989,,0.1519
2047,-0.1906,0.6876,-0.045,-1.0989,,0.1906
2048,-0.112,0.6876,-0.0321,-1.0989,,0.112
2049,-0.0515,0.6876,-0.0193,-1.0989,,0.0515
2050,-0.0127,0.6876,-0.0193,-1.0989,,0.0127
2051,0.048,0.6876,-0.0321,-1.0989,,0.048
2052,0.0902,0.6876,-0.0321,-1.0989,,0.0902
2053,-0.0409,0.739,-0.045,-1.0989,,0.0409
2054,0.0096,0.7262,-0.0321,-1.0989,,0.0096
2055,0.018,0.7133,-0.0321,-1.0989,,0.018
2056,-0.0233,0.7005,-0.0064,-1.086,,0.0233
2057,0.013,0.6876,-0.0193,-1.086,,0.013
2058,0.0489,0.7005,-0.0321,-1.1118,,0.0489
2059,0.0159,0.7133,-0.0321,-1.0989,,0.0159
2060,-0.065,0.7262,-0.045,-1.0989,,0.065
2061,-0.0622,0.7262,-0.045,-1.1246,,0.0622
2062,-0.0734,0.7133,-0.045,-1.1246,,0.0734
2063,-0.0001,0.739,-0.0321,-1.0989,,0.0001
2064,0.0437,0.739,-0.0193,-1.1246,,0.0437
2065,0.066,0.7262,-0.0193,-1.1118,,0.066
2066,0.0933,0.7519,-0.0193,-1.1246,,0.0933
2067,0.0932,0.739,-0.0321,-1.1375,,0.0932
2068,0.0877,0.7904,-0.045,-1.1375,,0.0877
2069,0.0889,0.7647,-0.045,-1.1375,,0.0889
2070,0.0617,0.7647,-0.0193,-1.1375,,0.0617
2071,0.0566,0.7647,-0.0193,-1.1375,,0.0566
2072,0.0516,0.7647,-0.0321,-1.1246,,0.0516
2073,0.0156,0.7647,-0.0321,-1.1375,,0.0156
2074,-0.0236,0.7776,-0.0321,-1.1503,,0.0236
2075,-0.0748,0.7776,-0.0321,-1.1375,,0.0748
2076,-0.1241,0.7904,-0.0193,-1.1632,,0.1241
2077,-0.1586,0.8033,-0.0321,-1.1503,,0.1586
2078,-0.066,0.8161,-0.0193,-1.1503,,0.066
2079,-0.05,0.8161,-0.0321,-1.1503,,0.05
2080,-0.0299,0.829,-0.0064,-1.1503,,0.0299
2081,-0.0283,0.8418,-0.0321,-1.1503,,0.0283
2082,-0.0314,0.8547,-0.0321,-1.1503,,0.0314
2083,0.0064,0.8804,-0.0321,-1.1503,,0.0064
2084,0.0442,0.8804,-0.045,-1.1632,,0.0442
2085,0.0545,0.8804,-0.0321,-1.1503,,0.0545
2086,0.0749,0.8676,-0.0321,-1.1632,,0.0749
2087,0.0968,0.8676,-0.0321,-1.1632,,0.0968
2088,0.1185,0.8804,-0.0321,-1.1632,,0.1185
2089,0.1867,0.8676,-0.045,-1.2017,,0.1867
2090,0.1836,0.8804,-0.045,-1.1889,,0.1836
2091,0.1339,0.8933,-0.0321,-1.2146,,0.1339
2092,0.0677,0.9061,-0.0193,-1.2017,,0.0677
2093,-0.0477,0.8804,-0.0321,-1.2146,,0.0477
2094,-0.1488,0.8933,-0.0321,-1.2146,,0.1488
2095,-0.215,0.8804,-0.0193,-1.2274,,0.215
2096,-0.0937,0.8933,-0.0064,-1.2146,,0.0937
2097,-0.0611,0.8804,-0.0193,-1.1889,,0.0611
2098,-0.0877,0.8804,-0.0193,-1.2274,,0.0877
2099,-0.1198,0.8804,-0.0193,-1.266,,0.1198
2100,-0.0551,0.8804,-0.0064,-1.2146,,0.0551
2101,0.0558,0.8676,0.0064,-1.2146,,0.0558
2102,0.0995,0.8676,0.0064,-1.2531,,0.0995
2103,0.1224,0.8547,0.0064,-1.2403,,0.1224
2104,0.1411,0.8547,0.0064,-1.2403,,0.1411
2105,0.0334,0.8547,0.0193,-1.2531,,0.0334
2106,0.0522,0.8547,0.045,-1.2531,,0.0522
2107,-0.043,0.8547,0.045,-1.2403,,0.043
2108,-0.0854,0.8804,0.045,-1.2403,,0.0854
2109,-0.1283,0.8676,0.045,-1.2531,,0.1283
2110,-0.1094,0.8547,0.045,-1.2403,,0.1094
2111,-0.0124,0.8418,0.0578,-1.2274,,0.0124
2112,0.0878,0.8547,0.0578,-1.2403,,0.0878
2113,0.1232,0.8547,0.0578,-1.2146,,0.1232
2114,0.1179,0.8547,0.0578,-1.2274,,0.1179
2115,0.1214,0.8547,0.0578,-1.266,,0.1214
2116,0.0695,0.8676,0.0707,-1.2403,,0.0695
2117,-0.035,0.8676,0.0707,-1.2531,,0.035
2118,-0.0395,0.8547,0.0707,-1.2274,,0.0395
2119,-0.0573,0.8676,0.0707,-1.2403,,0.0573
2120,-0.0258,0.8676,0.0707,-1.2531,,0.0258
2121,-0.0248,0.8676,0.0578,-1.2531,,0.0248
2122,-0.002,0.8804,0.0578,-1.2403,,0.002
2123,0.0031,0.8933,0.0578,-1.2531,,0.0031
2124,-0.0355,0.8804,0.0321,-1.2403,,0.0355
2125,-0.0587,0.8804,0.045,-1.266,,0.0587
2126,-0.0226,0.8804,0.0578,-1.2146,,0.0226
2127,0.0218,0.8804,0.045,-1.2403,,0.0218
2128,-0.0175,0.8933,0.045,-1.2274,,0.0175
2129,-0.0105,0.8933,0.045,-1.2403,,0.0105
2130,0.0984,0.8933,0.045,-1.2788,,0.0984
2131,0.1836,0.8933,0.0321,-1.266,,0.1836
2132,0.1398,0.8933,0.045,-1.2403,,0.1398
2133,0.1599,0.8804,0.0578,-1.266,,0.1599
2134,0.1749,0.8804,0.045,-1.2531,,0.1749
2135,0.0991,0.8804,0.0321,-1.2531,,0.0991
2136,-0.0054,0.8933,0.045,-1.2403,,0.0054
2137,-0.2074,0.8933,0.045,-1.2274,,0.2074
2138,-0.2232,0.9061,0.045,-1.2531,,0.2232
2139,-0.1536,0.9061,0.0321,-1.2531,,0.1536
2140,-0.1264,0.919,0.0707,-1.2403,,0.1264
2141,-0.0929,0.9061,0.0578,-1.2146,,0.0929
2142,-0.0526,0.8933,0.0578,-1.2146,,0.0526
2143,0.0489,0.9061,0.0578,-1.2274,,0.0489
2144,0.0942,0.9061,0.0578,-1.2403,,0.0942
2145,0.0921,0.9061,0.0578,-1.2531,,0.0921
2146,0.0577,0.9061,0.0578,-1.2403,,0.0577
2147,0.0604,0.9061,0.0578,-1.2403,,0.0604
2148,0.0483,0.9061,0.0578,-1.2403,,0.0483
2149,0.0072,0.8933,0.0578,-1.2146,,0.0072
2150,-0.0105,0.9061,0.0707,-1.2274,,0.0105
2151,-0.0223,0.9061,0.0578,-1.2146,,0.0223
2152,-0.0565,0.9061,0.0707,-1.2403,,0.0565
2153,-0.0038,0.919,0.0707,-1.2146,,0.0038
2154,0.0602,0.919,0.0578,-1.2146,,0.0602
2155,0.1027,0.919,0.0707,-1.2017,,0.1027
2156,0.0755,0.9061,0.0578,-1.2146,,0.0755
2157,-0.0019,0.9061,0.0835,-1.2017,,0.0019
2158,-0.025,0.8933,0.0707,-1.2146,,0.025
2159,0.0118,0.8933,0.0707,-1.176,,0.0118
2160,0.0516,0.8804,0.0835,-1.2146,,0.0516
2161,0.0437,0.8933,0.0707,-1.2274,,0.0437
2162,0.0319,0.8933,0.0964,-1.2274,,0.0319
2163,0.0737,0.8676,0.0835,-1.2017,,0.0737
2164,0.0626,0.8547,0.0964,-1.2017,,0.0626
2165,0.0588,0.8418,0.0964,-1.1632,,0.0588
2166,0.0338,0.8547,0.0835,-1.2017,,0.0338
2167,0.0831,0.8547,0.0964,-1.2017,,0.0831
2168,0.1046,0.829,0.0835,-1.2017,,0.1046
2169,0.1515,0.8161,0.0707,-1.2017,,0.1515
2170,0.1532,0.8161,0.0835,-1.2146,,0.1532
2171,0.0979,0.8033,0.0964,-1.1889,,0.0979
2172,-0.0662,0.8033,0.0964,-1.176,,0.0662
2173,-0.2364,0.7776,0.0964,-1.1889,,0.2364
2174,-0.2499,0.7776,0.0835,-1.176,,0.2499
2175,-0.1313,0.7647,0.0964,-1.1889,,0.1313
2176,-0.0129,0.7519,0.0835,-1.1889,,0.0129
2177,0.0091,0.7519,0.0964,-1.1889,,0.0091
2178,0.0469,0.7262,0.0835,-1.1889,,0.0469
2179,0.064,0.7262,0.0835,-1.176,,0.064
2180,0.0519,0.7133,0.0964,-1.1889,,0.0519
2181,0.0507,0.7005,0.0964,-1.176,,0.0507
2182,-0.0261,0.6876,0.0964,-1.176,,0.0261
2183,0.0252,0.7005,0.0835,-1.1889,,0.0252
2184,0.0949,0.6876,0.0835,-1.176,,0.0949
2185,0.0116,0.6748,0.0964,-1.1503,,0.0116
2186,-0.0658,0.6748,0.0964,-1.176,,0.0658
2187,-0.0341,0.6748,0.0964,-1.1375,,0.0341
2188,0.0192,0.6619,0.1092,-1.1503,,0.0192
2189,0.0936,0.6619,0.1092,-1.176,,0.0936
2190,0.0949,0.6491,0.1092,-1.1632,,0.0949
2191,0.12,0.6619,0.1221,-1.1503,,0.12
2192,0.0155,0.6491,0.1092,-1.1375,,0.0155
2193,0.0445,0.6619,0.1221,-1.1246,,0.0445
2194,-0.0119,0.6491,0.1092,-1.1246,,0.0119
2195,-0.099,0.6362,0.1092,-1.1375,,0.099
2196,-0.0977,0.6362,0.1092,-1.1503,,0.0977
2197,-0.0727,0.6362,0.1221,-1.1246,,0.0727
2198,-0.0961,0.6491,0.1092,-1.1503,,0.0961
2199,-0.0855,0.6619,0.1092,-1.1375,,0.0855
2200,-0.016,0.6491,0.1092,-1.1375,,0.016
2201,-0.0076,0.6748,0.1092,-1.0989,,0.0076
2202,-0.0296,0.6619,0.1092,-1.1246,,0.0296
2203,0.0256,0.6748,0.1221,-1.0989,,0.0256
2204,0.0834,0.6876,0.1221,-1.0989,,0.0834
2205,0.0929,0.7005,0.1221,-1.1246,,0.0929
2206,0.124,0.7133,0.1221,-1.1503,,0.124
2207,0.0755,0.7133,0.1092,-1.1503,,0.0755
2208,0.0032,0.7519,0.1221,-1.1375,,0.0032
2209,0.0116,0.7519,0.1221,-1.1246,,0.0116
2210,0.0001,0.739,0.1221,-1.1118,,0.0001
2211,-0.0409,0.7647,0.1221,-1.1503,,0.0409
2212,-0.0911,0.7776,0.135,-1.1375,,0.0911
2213,-0.0643,0.7904,0.1221,-1.1246,,0.0643
2214,-0.0387,0.8161,0.135,-1.1503,,0.0387
2215,-0.019,0.829,0.1478,-1.1375,,0.019
2216,0.0158,0.8418,0.1221,-1.1503,,0.0158
2217,0.0511,0.8676,0.135,-1.1632,,0.0511
2218,0.0735,0.8676,0.135,-1.1503,,0.0735
2219,0.094,0.8804,0.1478,-1.1503,,0.094
2220,0.0845,0.9061,0.1478,-1.1503,,0.0845
2221,0.04,0.919,0.1607,-1.1503,,0.04
2222,-0.0393,0.9318,0.1478,-1.176,,0.0393
2223,-0.1496,0.9575,0.1607,-1.1632,,0.1496
2224,-0.1328,0.9575,0.1478,-1.1632,,0.1328
2225,-0.077,0.9575,0.1607,-1.2017,,0.077
2226,-0.0664,0.9704,0.1478,-1.176,,0.0664
2227,0.0491,0.9961,0.1607,-1.2017,,0.0491
2228,0.1036,0.9832,0.1607,-1.2017,,0.1036
2229,0.0938,1.0089,0.1735,-1.2017,,0.0938
2230,0.1231,1.0218,0.1607,-1.2017,,0.1231
2231,0.1093,1.0346,0.1607,-1.2017,,0.1093
2232,0.0871,1.0346,0.1607,-1.2274,,0.0871
2233,0.0499,1.0346,0.1607,-1.2146,,0.0499
2234,0.0215,1.0603,0.1735,-1.2274,,0.0215
2235,0.0116,1.0603,0.1864,-1.2531,,0.0116
2236,0.014,1.0732,0.1864,-1.266,,0.014
2237,-0.0426,1.0732,0.1735,-1.2531,,0.0426
2238,-0.0944,1.086,0.1864,-1.2531,,0.0944
2239,-0.0188,1.0989,0.1735,-1.2788,,0.0188
2240,0.0065,1.086,0.1864,-1.266,,0.0065
2241,-0.0499,1.086,0.1864,-1.2531,,0.0499
2242,-0.0126,1.086,0.1864,-1.2531,,0.0126
2243,-0.0239,1.0732,0.1992,-1.266,,0.0239
2244,-0.0338,1.0732,0.1864,-1.2788,,0.0338
2245,0.0019,1.086,0.1864,-1.2788,,0.0019
2246,0.0284,1.0989,0.1992,-1.2788,,0.0284
2247,0.045,1.1118,0.1992,-1.3045,,0.045
2248,0.0371,1.1118,0.1992,-1.3045,,0.0371
2249,0.0625,1.086,0.1864,-1.266,,0.0625
2250,0.0765,1.086,0.1992,-1.2917,,0.0765
2251,0.0616,1.0989,0.1864,-1.3045,,0.0616
2252,0.06,1.0989,0.1992,-1.3045,,0.06
2253,0.0733,1.1375,0.1992,-1.2917,,0.0733
2254,0.0578,1.0989,0.1735,-1.3174,,0.0578
2255,0.0437,1.086,0.1864,-1.3045,,0.0437
2256,-0.0533,1.0989,0.1864,-1.3045,,0.0533
2257,-0.087,1.0989,0.1992,-1.3174,,0.087
2258,-0.068,1.086,0.1864,-1.3302,,0.068
2259,-0.0987,1.086,0.1992,-1.3302,,0.0987
2260,-0.163,1.086,0.1864,-1.3174,,0.163
2261,-0.0823,1.086,0.1864,-1.3302,,0.0823
2262,-0.0877,1.086,0.1992,-1.3174,,0.0877
2263,-0.0847,1.0989,0.1992,-1.3431,,0.0847
2264,-0.0828,1.086,0.1992,-1.3302,,0.0828
2265,-0.0346,1.086,0.1992,-1.3302,,0.0346
2266,-0.0204,1.0732,0.1735,-1.3174,,0.0204
2267,-0.0801,1.0732,0.1864,-1.356,,0.0801
2268,-0.0145,1.1118,0.1992,-1.3174,,0.0145
2269,0.0001,1.0732,0.1864,-1.3817,,0.0001
2270,0.042,1.0475,0.1864,-1.3431,,0.042
2271,0.097,1.0603,0.1864,-1.3431,,0.097
2272,0.131,1.0475,0.1992,-1.356,,0.131
2273,0.1074,1.0475,0.1992,-1.3817,,0.1074
2274,0.1235,1.0218,0.1992,-1.356,,0.1235
2275,0.108,1.0218,0.1992,-1.356,,0.108
2276,0.025,0.9961,0.1992,-1.3688,,0.025
2277,-0.0764,0.9961,0.1992,-1.4074,,0.0764
2278,-0.0253,0.9832,0.1992,-1.4074,,0.0253
2279,0.0642,0.9704,0.2121,-1.4331,,0.0642
2280,0.2232,0.9575,0.2249,-1.4074,,0.2232
2281,0.3533,0.9447,0.2121,-1.4331,,0.3533
2282,0.3806,0.9318,0.2121,-1.4459,,0.3806
2283,0.2484,0.9447,0.2121,-1.4202,,0.2484
2284,0.0979,0.9061,0.2121,-1.4588,,0.0979
2285,-0.013,0.8933,0.2121,-1.4845,,0.013
2286,-0.0477,0.8804,0.2249,-1.4716,,0.0477
2287,-0.0368,0.8418,0.2249,-1.4716,,0.0368
2288,-0.0331,0.829,0.2378,-1.4973,,0.0331
2289,-0.0199,0.8033,0.2378,-1.4716,,0.0199
2290,0.0209,0.7904,0.2378,-1.4588,,0.0209
2291,0.0782,0.7647,0.2378,-1.4331,,0.0782
2292,0.099,0.7647,0.2506,-1.4459,,0.099
2293,0.1098,0.7776,0.2378,-1.4331,,0.1098
2294,0.0955,0.739,0.2506,-1.4202,,0.0955
2295,0.0793,0.7133,0.2635,-1.4074,,0.0793
2296,0.0148,0.7005,0.2763,-1.3817,,0.0148
2297,-0.0711,0.6748,0.2892,-1.356,,0.0711
2298,-0.1206,0.6748,0.302,-1.3688,,0.1206
2299,-0.1305,0.6619,0.2892,-1.356,,0.1305
2300,-0.153,0.6491,0.302,-1.3302,,0.153
2301,-0.163,0.6491,0.302,-1.3431,,0.163
2302,-0.11,0.6491,0.3149,-1.3045,,0.11
2303,-0.1137,0.6234,0.3277,-1.3045,,0.1137
2304,-0.0431,0.6105,0.3277,-1.3045,,0.0431
2305,0.0325,0.5848,0.3277,-1.2917,,0.0325
2306,0.0515,0.5848,0.3149,-1.2788,,0.0515
2307,0.0614,0.5976,0.3149,-1.2917,,0.0614
2308,0.091,0.5976,0.2892,-1.2788,,0.091
2309,0.0925,0.6362,0.2763,-1.3174,,0.0925
2310,0.08,0.5976,0.2892,-1.3174,,0.08
2311,0.0562,0.5591,0.2892,-1.3174,,0.0562
2312,-0.0409,0.5719,0.2763,-1.3045,,0.0409
2313,0.0814,0.5462,0.2763,-1.3174,,0.0814
2314,0.1276,0.5591,0.2635,-1.3431,,0.1276
2315,0.0116,0.5591,0.2506,-1.3302,,0.0116
2316,-0.1244,0.5591,0.2378,-1.3688,,0.1244
2317,-0.2038,0.5719,0.2249,-1.3431,,0.2038
2318,-0.2185,0.5591,0.2249,-1.356,,0.2185
2319,-0.1485,0.5719,0.2249,-1.3817,,0.1485
2320,-0.1167,0.5719,0.2121,-1.356,,0.1167
2321,-0.073,0.5848,0.2121,-1.3945,,0.073
2322,0.0204,0.5976,0.2121,-1.3817,,0.0204
2323,0.0429,0.6234,0.2121,-1.3688,,0.0429
2324,0.0389,0.6362,0.1864,-1.3688,,0.0389
2325,0.0047,0.6362,0.1992,-1.3817,,0.0047
2326,0.0127,0.6491,0.1864,-1.3817,,0.0127
2327,0.0123,0.6619,0.1864,-1.356,,0.0123
2328,-0.0278,0.6748,0.1992,-1.4074,,0.0278
2329,-0.1064,0.7133,0.1864,-1.3688,,0.1064
2330,-0.0562,0.7133,0.1992,-1.3688,,0.0562
2331,-0.0266,0.739,0.1992,-1.3688,,0.0266
2332,-0.0034,0.7647,0.1992,-1.3688,,0.0034
2333,0.0523,0.7776,0.1992,-1.356,,0.0523
2334,0.0916,0.7904,0.1992,-1.3431,,0.0916
2335,0.1314,0.8033,0.2121,-1.3688,,0.1314
2336,0.0486,0.8161,0.2249,-1.3431,,0.0486
2337,-0.0907,0.829,0.2121,-1.3302,,0.0907
2338,-0.2019,0.8933,0.2121,-1.3431,,0.2019
2339,-0.1199,0.8804,0.2121,-1.3688,,0.1199
2340,-0.0373,0.9061,0.2249,-1.3302,,0.0373
2341,-0.0639,0.9061,0.2378,-1.3431,,0.0639
2342,-0.0738,0.9061,0.2378,-1.356,,0.0738
2343,-0.0163,0.9318,0.2506,-1.3302,,0.0163
2344,-0.0208,0.9447,0.2635,-1.3174,,0.0208
2345,-0.0008,0.9575,0.2635,-1.3302,,0.0008
2346,0.0579,0.9575,0.2506,-1.3431,,0.0579
2347,0.0668,0.9832,0.2635,-1.3174,,0.0668
2348,0.0731,0.9832,0.2506,-1.3302,,0.0731
2349,0.0782,0.9704,0.2763,-1.3174,,0.0782
2350,0.0786,0.9704,0.2635,-1.3174,,0.0786
2351,0.0496,0.9704,0.2635,-1.3045,,0.0496
2352,0.0474,0.9832,0.2635,-1.3174,,0.0474
2353,0.0171,0.9961,0.2635,-1.3045,,0.0171
2354,0.1243,0.9832,0.2506,-1.3045,,0.1243
2355,0.1942,0.9832,0.2635,-1.3045,,0.1942
2356,0.2055,0.9575,0.2506,-1.3045,,0.2055
2357,0.1753,0.9447,0.2378,-1.2917,,0.1753
2358,0.1589,0.9318,0.2506,-1.266,,0.1589
2359,0.1042,0.919,0.2506,-1.2788,,0.1042
2360,0.076,0.9061,0.2378,-1.2531,,0.076
2361,-0.0765,0.8933,0.2249,-1.2531,,0.0765
2362,-0.0702,0.8804,0.2249,-1.2917,,0.0702
2363,-0.0415,0.8676,0.2121,-1.2917,,0.0415
2364,-0.0486,0.8547,0.1992,-1.2788,,0.0486
2365,-0.0781,0.8161,0.1992,-1.266,,0.0781
2366,-0.0492,0.7904,0.1864,-1.266,,0.0492
2367,-0.0533,0.7776,0.1864,-1.2531,,0.0533
2368,-0.0492,0.7904,0.1735,-1.266,,0.0492
2369,-0.0243,0.7519,0.1607,-1.266,,0.0243
2370,0.0159,0.7262,0.1607,-1.266,,0.0159
2371,-0.0114,0.7133,0.1478,-1.2531,,0.0114
2372,-0.0905,0.7005,0.1478,-1.2403,,0.0905
2373,-0.113,0.6748,0.1478,-1.2531,,0.113
2374,-0.0749,0.6619,0.1478,-1.2274,,0.0749
2375,-0.0375,0.6491,0.1478,-1.2531,,0.0375
2376,-0.0251,0.6362,0.1478,-1.266,,0.0251
2377,0.0682,0.6105,0.135,-1.266,,0.0682
2378,0.1368,0.6105,0.135,-1.266,,0.1368
2379,0.1493,0.5976,0.1221,-1.2531,,0.1493
2380,0.2027,0.5848,0.1478,-1.2274,,0.2027
2381,0.2361,0.5848,0.135,-1.2403,,0.2361
2382,0.1999,0.5719,0.135,-1.2403,,0.1999
2383,0.1532,0.5591,0.1221,-1.2788,,0.1532
2384,0.0984,0.5591,0.1221,-1.266,,0.0984
2385,0.0527,0.5462,0.1221,-1.2788,,0.0527
2386,0.0046,0.5719,0.135,-1.2788,,0.0046
2387,-0.0676,0.5462,0.1221,-1.2917,,0.0676
2388,-0.027,0.5719,0.1478,-1.266,,0.027
2389,-0.0021,0.5719,0.135,-1.2531,,0.0021
2390,-0.0675,0.5848,0.135,-1.2531,,0.0675
2391,-0.1359,0.5848,0.135,-1.2531,,0.1359
2392,-0.0986,0.5848,0.135,-1.2917,,0.0986
2393,-0.0355,0.6491,0.135,-1.2788,,0.0355
2394,0.0363,0.6234,0.135,-1.3045,,0.0363
2395,0.0295,0.6234,0.135,-1.266,,0.0295
2396,0.0104,0.6105,0.135,-1.2531,,0.0104
2397,0.0063,0.6234,0.1221,-1.2788,,0.0063
2398,-0.0023,0.6234,0.135,-1.2917,,0.0023
2399,0.0173,0.6362,0.135,-1.2403,,0.0173
2400,0.0177,0.6491,0.1478,-1.2531,,0.0177
2401,0.0709,0.6619,0.135,-1.266,,0.0709
2402,0.0563,0.6748,0.1221,-1.2531,,0.0563
2403,0.0266,0.6748,0.135,-1.2531,,0.0266
2404,0.0373,0.6748,0.1221,-1.2274,,0.0373
2405,0.0259,0.6748,0.135,-1.2146,,0.0259
2406,0.0178,0.6876,0.135,-1.2017,,0.0178
2407,-0.149,0.7005,0.135,-1.2274,,0.149
2408,-0.2608,0.739,0.1221,-1.2146,,0.2608
2409,-0.151,0.7133,0.1221,-1.2146,,0.151
2410,-0.1033,0.7262,0.1221,-1.2146,,0.1033
2411,-0.0616,0.739,0.135,-1.2017,,0.0616
2412,-0.0543,0.739,0.1221,-1.2146,,0.0543
2413,-0.0137,0.7262,0.1221,-1.1632,,0.0137
2414,-0.0014,0.739,0.1221,-1.1889,,0.0014
2415,0.0316,0.739,0.1221,-1.1889,,0.0316
2416,0.0642,0.7519,0.1221,-1.176,,0.0642
2417,0.1002,0.7647,0.1092,-1.176,,0.1002
2418,0.1233,0.7519,0.1092,-1.2146,,0.1233
2419,0.1096,0.7647,0.135,-1.1632,,0.1096
2420,0.1575,0.7519,0.135,-1.1632,,0.1575
2421,0.1433,0.7776,0.135,-1.2017,,0.1433
2422,0.1072,0.7776,0.135,-1.1503,,0.1072
2423,0.1164,0.7776,0.1221,-1.1889,,0.1164
2424,0.066,0.7904,0.1221,-1.1503,,0.066
2425,0.0457,0.7776,0.135,-1.176,,0.0457
2426,0.0111,0.7776,0.135,-1.1632,,0.0111
2427,-0.0541,0.7904,0.1221,-1.176,,0.0541
2428,-0.1229,0.7647,0.1221,-1.1632,,0.1229
2429,-0.1367,0.7776,0.135,-1.1632,,0.1367
2430,-0.1211,0.7776,0.1221,-1.176,,0.1211
2431,-0.1338,0.8033,0.1221,-1.176,,0.1338
2432,-0.0907,0.8033,0.135,-1.1889,,0.0907
2433,-0.0373,0.7904,0.135,-1.2017,,0.0373
2434,0.0565,0.7904,0.135,-1.176,,0.0565
2435,0.0902,0.7904,0.1221,-1.176,,0.0902
2436,0.091,0.7776,0.135,-1.1632,,0.091
2437,0.0954,0.7776,0.1478,-1.176,,0.0954
2438,0.118,0.8033,0.135,-1.1503,,0.118
2439,0.0475,0.7776,0.1478,-1.1889,,0.0475
2440,0.0578,0.7647,0.135,-1.1632,,0.0578
2441,0.0412,0.7647,0.1478,-1.1503,,0.0412
2442,0.0251,0.7647,0.1478,-1.176,,0.0251
2443,0.0155,0.739,0.1478,-1.1632,,0.0155
2444,0.0226,0.7519,0.1607,-1.1503,,0.0226
2445,0.0667,0.739,0.1478,-1.1503,,0.0667
2446,0.0688,0.739,0.1478,-1.1503,,0.0688
2447,0.0341,0.739,0.1478,-1.1632,,0.0341
2448,0.0914,0.7262,0.1478,-1.1632,,0.0914
2449,0.0822,0.7133,0.1607,-1.1889,,0.0822
2450,0.0644,0.7133,0.1735,-1.1632,,0.0644
2451,0.0554,0.7262,0.1735,-1.1503,,0.0554
2452,0.0567,0.7262,0.1735,-1.176,,0.0567
2453,0.097,0.739,0.1735,-1.1889,,0.097
2454,0.1283,0.739,0.1735,-1.176,,0.1283
2455,0.1091,0.739,0.1864,-1.176,,0.1091
2456,0.0979,0.7262,0.1864,-1.1503,,0.0979
2457,-0.0207,0.7262,0.1735,-1.1632,,0.0207
2458,-0.1821,0.7262,0.1864,-1.1632,,0.1821
2459,-0.1653,0.739,0.1992,-1.176,,0.1653
2460,-0.1198,0.739,0.1864,-1.1889,,0.1198
2461,-0.0771,0.739,0.2121,-1.176,,0.0771
2462,-0.0968,0.7519,0.1992,-1.1889,,0.0968
2463,-0.056,0.7647,0.1992,-1.1889,,0.056
2464,-0.0401,0.7519,0.1992,-1.1889,,0.0401
2465,-0.0188,0.7647,0.1992,-1.176,,0.0188
2466,-0.0393,0.7776,0.1992,-1.1632,,0.0393
2467,-0.071,0.7776,0.1992,-1.1503,,0.071
2468,-0.1186,0.829,0.1992,-1.1632,,0.1186
2469,-0.1065,0.8161,0.1864,-1.2017,,0.1065
2470,-0.059,0.8033,0.1992,-1.176,,0.059
2471,0.0107,0.8161,0.1864,-1.1889,,0.0107
2472,0.0918,0.8161,0.1864,-1.176,,0.0918
2473,0.1761,0.8161,0.1864,-1.1889,,0.1761
2474,0.3184,0.8161,0.1735,-1.2146,,0.3184
2475,0.3336,0.829,0.1607,-1.2274,,0.3336
2476,0.1978,0.8547,0.1607,-1.2146,,0.1978
2477,0.143,0.8547,0.1607,-1.2017,,0.143
2478,0.1048,0.8804,0.1478,-1.2146,,0.1048
2479,0.0305,0.8804,0.135,-1.2017,,0.0305
2480,-0.0733,0.8804,0.135,-1.2146,,0.0733
2481,-0.1764,0.8933,0.135,-1.2146,,0.1764
2482,-0.1845,0.9061,0.135,-1.2146,,0.1845
2483,-0.0984,0.9061,0.135,-1.2146,,0.0984
2484,-0.0427,0.919,0.135,-1.2146,,0.0427
2485,-0.0579,0.9447,0.135,-1.2531,,0.0579
2486,-0.0515,0.9575,0.1221,-1.2274,,0.0515
2487,-0.0313,0.9575,0.1092,-1.2403,,0.0313
2488,-0.0018,0.9704,0.1092,-1.2403,,0.0018
2489,-0.0302,0.9832,0.1092,-1.266,,0.0302
2490,-0.0368,0.9832,0.1092,-1.2531,,0.0368
2491,0.0376,0.9832,0.1092,-1.2531,,0.0376
2492,0.0574,0.9961,0.0835,-1.266,,0.0574
2493,0.0639,1.0346,0.0835,-1.266,,0.0639
2494,0.1407,1.0089,0.0835,-1.266,,0.1407
2495,0.1422,1.0218,0.0835,-1.266,,0.1422
2496,0.1375,1.0346,0.0835,-1.2788,,0.1375
2497,0.0886,1.0346,0.0707,-1.2403,,0.0886
2498,0.0573,1.0475,0.0835,-1.2788,,0.0573
2499,-0.0103,1.0603,0.0707,-1.2788,,0.0103
2500,-0.0111,1.0732,0.0707,-1.3174,,0.0111
2501,-0.0314,1.1118,0.0707,-1.356,,0.0314
2502,0.0046,1.0989,0.045,-1.3945,,0.0046
2503,0.0375,1.1246,0.0321,-1.3945,,0.0375
2504,0.0511,1.1246,0.045,-1.4074,,0.0511
2505,0.0109,1.1118,0.045,-1.3817,,0.0109
2506,0.0153,1.0989,0.0321,-1.3817,,0.0153
2507,-0.0086,1.0989,0.045,-1.3688,,0.0086
2508,-0.0684,1.1246,0.045,-1.3431,,0.0684
2509,-0.0651,1.1246,0.045,-1.3045,,0.0651
2510,-0.0372,1.1118,0.045,-1.2788,,0.0372
2511,-0.0083,1.0989,0.0321,-1.2531,,0.0083
2512,-0.0331,1.0989,0.0578,-1.2531,,0.0331
2513,-0.0357,1.0989,0.045,-1.2531,,0.0357
2514,-0.0507,1.0989,0.0578,-1.2146,,0.0507
2515,-0.0415,1.086,0.045,-1.2403,,0.0415
2516,-0.0185,1.0989,0.0578,-1.2403,,0.0185
2517,-0.0116,1.1118,0.045,-1.2531,,0.0116
2518,-0.0025,1.1118,0.0578,-1.2274,,0.0025
2519,0.0639,1.1118,0.0578,-1.2788,,0.0639
2520,0.0434,1.1118,0.0578,-1.266,,0.0434
2521,0.0524,1.0989,0.0707,-1.266,,0.0524
2522,0.0653,1.0989,0.0835,-1.2788,,0.0653
2523,0.072,1.1118,0.0707,-1.2788,,0.072
2524,0.0916,1.1118,0.0707,-1.2917,,0.0916
2525,0.0793,1.1118,0.0835,-1.266,,0.0793
2526,-0.0138,1.0989,0.0835,-1.3045,,0.0138
2527,-0.0948,1.086,0.0707,-1.266,,0.0948
2528,-0.0611,1.0989,0.0835,-1.2531,,0.0611
2529,-0.0555,1.086,0.0964,-1.266,,0.0555
2530,-0.1163,1.086,0.0964,-1.2531,,0.1163
2531,-0.1118,1.0732,0.1092,-1.2531,,0.1118
2532,0.0021,1.0732,0.0964,-1.2274,,0.0021
2533,0.0797,1.0603,0.0964,-1.2146,,0.0797
2534,0.0565,1.0732,0.0964,-1.2017,,0.0565
2535,0.0456,1.0475,0.0964,-1.2146,,0.0456
2536,0.0573,1.0346,0.0835,-1.2146,,0.0573
2537,0.071,1.0089,0.1092,-1.2146,,0.071
2538,0.0902,1.0475,0.0964,-1.1632,,0.0902
2539,0.1449,1.0218,0.0964,-1.176,,0.1449
2540,0.0675,1.0346,0.0835,-1.176,,0.0675
2541,0.0418,1.0089,0.0835,-1.176,,0.0418
2542,0.0107,0.9961,0.0707,-1.1632,,0.0107
2543,-0.0108,0.9832,0.0964,-1.1375,,0.0108
2544,-0.0352,0.9575,0.0964,-1.1118,,0.0352
2545,-0.0345,0.9832,0.0964,-1.1246,,0.0345
2546,0.0009,0.9575,0.1092,-1.1375,,0.0009
2547,0.047,0.9704,0.0964,-1.1118,,0.047
2548,0.0141,0.9704,0.0964,-1.1118,,0.0141
2549,0.0037,0.9447,0.0964,-1.1375,,0.0037
2550,-0.0412,0.9575,0.0964,-1.1246,,0.0412
2551,-0.0899,0.9575,0.0964,-1.0989,,0.0899
2552,-0.0894,0.9447,0.1092,-1.086,,0.0894
2553,-0.1146,0.9575,0.1092,-1.0989,,0.1146
2554,-0.0533,0.919,0.1092,-1.0989,,0.0533
2555,0.0146,0.9061,0.1221,-1.086,,0.0146
2556,0.0623,0.9061,0.1221,-1.0732,,0.0623
2557,0.0647,0.8933,0.1221,-1.0732,,0.0647
2558,-0.0104,0.8933,0.1221,-1.086,,0.0104
2559,-0.0277,0.8804,0.1221,-1.0732,,0.0277
2560,-0.0746,0.8676,0.135,-1.0732,,0.0746
2561,-0.1288,0.8418,0.135,-1.0603,,0.1288
2562,-0.1356,0.829,0.1478,-1.0475,,0.1356
2563,-0.0914,0.8161,0.1478,-1.0732,,0.0914
2564,-0.0064,0.8161,0.1478,-1.0346,,0.0064
2565,0.0782,0.8033,0.1478,-1.0346,,0.0782
2566,0.1675,0.7904,0.1607,-1.0346,,0.1675
2567,0.1901,0.7776,0.1478,-1.0603,,0.1901
2568,0.1039,0.7647,0.1607,-1.0346,,0.1039
2569,0.0148,0.7647,0.1735,-1.0346,,0.0148
2570,0.0001,0.739,0.1735,-1.0475,,0.0001
2571,-0.0278,0.739,0.1607,-1.0475,,0.0278
2572,0.0014,0.7519,0.1478,-1.0475,,0.0014
2573,0.0655,0.7519,0.1735,-1.0346,,0.0655
2574,0.1299,0.739,0.1735,-1.0732,,0.1299
2575,0.1981,0.739,0.1735,-1.0475,,0.1981
2576,0.2646,0.739,0.1735,-1.0346,,0.2646
2577,0.2487,0.739,0.1607,-1.0732,,0.2487
2578,0.1479,0.739,0.1478,-1.0732,,0.1479
2579,0.0669,0.739,0.1607,-1.0732,,0.0669
2580,0.0349,0.739,0.1735,-1.086,,0.0349
2581,0.0096,0.7262,0.1735,-1.0989,,0.0096
2582,-0.0456,0.7133,0.1735,-1.1246,,0.0456
2583,-0.088,0.7262,0.1607,-1.0989,,0.088
2584,-0.1303,0.7133,0.1607,-1.1503,,0.1303
2585,-0.1716,0.7262,0.1735,-1.1503,,0.1716
2586,-0.1738,0.739,0.1478,-1.1375,,0.1738
2587,-0.2272,0.7262,0.1607,-1.1503,,0.2272
2588,-0.2579,0.7519,0.1607,-1.1375,,0.2579
2589,-0.2304,0.7519,0.1607,-1.1375,,0.2304
2590,-0.1036,0.739,0.1607,-1.1503,,0.1036
2591,0.0694,0.7647,0.1478,-1.1503,,0.0694
2592,0.1336,0.7647,0.1478,-1.1632,,0.1336
2593,0.0855,0.7776,0.1478,-1.1632,,0.0855
2594,0.1085,0.7262,0.1478,-1.1889,,0.1085
2595,0.1378,0.7776,0.135,-1.1889,,0.1378
2596,0.1335,0.7776,0.135,-1.1889,,0.1335
2597,0.149,0.7904,0.135,-1.176,,0.149
2598,0.0877,0.8033,0.135,-1.1889,,0.0877
2599,0.1034,0.8033,0.1221,-1.1889,,0.1034
2600,0.1398,0.7904,0.1221,-1.176,,0.1398
2601,0.2219,0.8033,0.1221,-1.1889,,0.2219
2602,0.2208,0.7904,0.1092,-1.2017,,0.2208
2603,0.2042,0.8033,0.1092,-1.2017,,0.2042
2604,0.1706,0.8033,0.1092,-1.2146,,0.1706
2605,0.1126,0.8161,0.0964,-1.1889,,0.1126
2606,0.073,0.8033,0.1221,-1.2274,,0.073
2607,0.0001,0.8161,0.1092,-1.2274,,0.0001
2608,-0.01,0.8161,0.1092,-1.2274,,0.01
2609,-0.0938,0.8161,0.0964,-1.2531,,0.0938
2610,-0.1126,0.829,0.1092,-1.2274,,0.1126
2611,-0.2137,0.829,0.1092,-1.2274,,0.2137
2612,-0.1892,0.8418,0.1092,-1.2403,,0.1892
2613,-0.0913,0.8418,0.1092,-1.2274,,0.0913
2614,-0.0017,0.8418,0.1092,-1.2403,,0.0017
2615,0.0275,0.8161,0.1092,-1.2531,,0.0275
2616,-0.0363,0.8033,0.0964,-1.2403,,0.0363
2617,-0.0724,0.8161,0.1092,-1.2274,,0.0724
2618,-0.0395,0.829,0.1221,-1.2531,,0.0395
2619,0.0185,0.8161,0.1092,-1.2531,,0.0185
2620,0.0951,0.7776,0.1221,-1.2274,,0.0951
2621,0.0405,0.8161,0.1092,-1.2274,,0.0405
2622,0.0292,0.829,0.1221,-1.2146,,0.0292
2623,0.0664,0.8418,0.1092,-1.2274,,0.0664
2624,0.1045,0.8547,0.1092,-1.2403,,0.1045
2625,0.1048,0.8418,0.1092,-1.2274,,0.1048
2626,0.0437,0.829,0.1092,-1.266,,0.0437
2627,-0.0514,0.8418,0.1092,-1.2403,,0.0514
2628,-0.0695,0.8418,0.1092,-1.2403,,0.0695
2629,-0.0065,0.8161,0.0964,-1.2531,,0.0065
2630,-0.0324,0.8161,0.1092,-1.2788,,0.0324
2631,0.0019,0.829,0.0964,-1.2917,,0.0019
2632,0.0171,0.8418,0.0835,-1.2788,,0.0171
2633,-0.0167,0.8547,0.0964,-1.2788,,0.0167
2634,-0.114,0.8804,0.0835,-1.2917,,0.114
2635,-0.1592,0.8804,0.0835,-1.2917,,0.1592
2636,-0.1324,0.8547,0.0707,-1.2917,,0.1324
2637,-0.0698,0.8804,0.0835,-1.2788,,0.0698
2638,0.0091,0.8547,0.0835,-1.2917,,0.0091
2639,0.0845,0.8933,0.0835,-1.266,,0.0845
2640,0.1606,0.9061,0.0964,-1.2917,,0.1606
2641,0.2795,0.8676,0.0835,-1.2917,,0.2795
2642,0.3526,0.8804,0.0835,-1.3045,,0.3526
2643,0.2952,0.8804,0.0707,-1.2917,,0.2952
2644,0.1707,0.8804,0.0835,-1.3045,,0.1707
2645,0.0508,0.8804,0.0835,-1.2917,,0.0508
2646,0.0006,0.8676,0.0835,-1.2917,,0.0006
2647,-0.0021,0.8804,0.0707,-1.2917,,0.0021
2648,-0.0347,0.8804,0.0707,-1.2788,,0.0347
2649,-0.0781,0.8804,0.0707,-1.2917,,0.0781
2650,-0.0694,0.8676,0.0707,-1.2788,,0.0694
2651,0.0174,0.8804,0.0707,-1.2917,,0.0174
2652,-0.0115,0.8804,0.0835,-1.2788,,0.0115
2653,-0.0566,0.8933,0.0835,-1.2917,,0.0566
2654,-0.0921,0.9061,0.0835,-1.2788,,0.0921
2655,-0.0883,0.9061,0.0835,-1.2788,,0.0883
2656,-0.1217,0.8933,0.0835,-1.2917,,0.1217
2657,-0.092,0.9061,0.0835,-1.2788,,0.092
2658,-0.0034,0.9318,0.0707,-1.3045,,0.0034
2659,0.0832,0.9318,0.0835,-1.2788,,0.0832
2660,0.2412,0.9318,0.0835,-1.266,,0.2412
2661,0.3002,0.9318,0.0964,-1.2788,,0.3002
2662,0.2298,0.9447,0.0964,-1.3045,,0.2298
2663,0.1129,0.9961,0.0964,-1.266,,0.1129
2664,0.0682,0.9704,0.1092,-1.2531,,0.0682
2665,0.0497,0.9575,0.0964,-1.2403,,0.0497
2666,-0.0014,0.9704,0.1092,-1.266,,0.0014
2667,-0.0803,0.9832,0.1092,-1.266,,0.0803
2668,-0.1694,0.9832,0.1092,-1.2531,,0.1694
2669,-0.151,0.9961,0.1092,-1.2146,,0.151
2670,-0.1063,0.9961,0.1221,-1.266,,0.1063
2671,0.0536,0.9832,0.1092,-1.2531,,0.0536
2672,0.222,0.9704,0.1092,-1.2531,,0.222
2673,0.3259,0.9961,0.1092,-1.2531,,0.3259
2674,0.1715,0.9832,0.1221,-1.2403,,0.1715
2675,0.1617,0.9704,0.1092,-1.266,,0.1617
2676,0.0866,0.9061,0.1221,-1.266,,0.0866
2677,0.0158,0.8933,0.1221,-1.266,,0.0158
2678,-0.0218,0.8676,0.1092,-1.2531,,0.0218
2679,-0.0971,0.8547,0.0835,-1.2531,,0.0971
2680,-0.0918,0.8418,0.0964,-1.2403,,0.0918
2681,-0.0779,0.8804,0.0835,-1.266,,0.0779
2682,-0.2265,0.919,0.0835,-1.2788,,0.2265
2683,-0.2291,0.9447,0.0835,-1.266,,0.2291
2684,-0.1871,0.9704,0.0835,-1.2788,,0.1871
2685,-0.1641,0.9704,0.0964,-1.266,,0.1641
2686,-0.1143,0.9832,0.1092,-1.2531,,0.1143
2687,-0.0873,0.9704,0.1221,-1.2917,,0.0873
2688,-0.0929,0.9575,0.1221,-1.2917,,0.0929
2689,-0.1076,0.9575,0.135,-1.2788,,0.1076
2690,-0.1922,0.9447,0.135,-1.2917,,0.1922
2691,-0.1159,0.9061,0.135,-1.266,,0.1159
2692,0.0935,0.8933,0.135,-1.2531,,0.0935
2693,0.4324,0.8676,0.1478,-1.2917,,0.4324
2694,0.4973,0.829,0.135,-1.2788,,0.4973
2695,0.429,0.8033,0.135,-1.2403,,0.429
2696,0.2725,0.7776,0.1221,-1.2146,,0.2725
2697,0.1748,0.7647,0.1221,-1.2403,,0.1748
2698,0.117,0.7519,0.1221,-1.2017,,0.117
2699,0.0823,0.7519,0.135,-1.2146,,0.0823
2700,0.0814,0.739,0.135,-1.2146,,0.0814
2701,0.0595,0.7262,0.1478,-1.2017,,0.0595
2702,0.0226,0.7133,0.135,-1.2403,,0.0226
2703,-0.0231,0.7005,0.135,-1.2274,,0.0231
2704,-0.102,0.6876,0.1478,-1.2403,,0.102
2705,-0.1901,0.6876,0.1478,-1.2403,,0.1901
2706,-0.1772,0.6491,0.135,-1.2531,,0.1772
2707,-0.111,0.6491,0.1478,-1.2531,,0.111
2708,-0.0442,0.6619,0.1607,-1.2531,,0.0442
2709,-0.0054,0.6491,0.135,-1.2531,,0.0054
2710,-0.0254,0.6362,0.1607,-1.2531,,0.0254
2711,-0.0669,0.6491,0.1478,-1.2531,,0.0669
2712,-0.1089,0.6362,0.1607,-1.2274,,0.1089
2713,-0.1413,0.6234,0.1607,-1.2531,,0.1413
2714,-0.1323,0.6362,0.1607,-1.2274,,0.1323
2715,-0.072,0.6362,0.1607,-1.2146,,0.072
2716,-0.0367,0.6362,0.1607,-1.2274,,0.0367
2717,-0.0144,0.6234,0.1478,-1.2017,,0.0144
2718,-0.0483,0.6234,0.1478,-1.2017,,0.0483
2719,-0.0452,0.6234,0.1478,-1.2017,,0.0452
2720,0.0536,0.6234,0.135,-1.2146,,0.0536
2721,0.1696,0.6234,0.1478,-1.2017,,0.1696
2722,0.2468,0.6234,0.135,-1.2146,,0.2468
2723,0.2768,0.6491,0.1221,-1.2274,,0.2768
2724,0.2715,0.6234,0.1221,-1.2017,,0.2715
2725,0.1684,0.6234,0.1221,-1.2017,,0.1684
2726,0.1302,0.6234,0.1221,-1.2274,,0.1302
2727,0.0466,0.6362,0.135,-1.2403,,0.0466
2728,-0.0229,0.6362,0.1221,-1.2403,,0.0229
2729,-0.092,0.6362,0.1221,-1.2531,,0.092
2730,-0.0986,0.6362,0.1221,-1.2274,,0.0986
2731,-0.0481,0.6491,0.135,-1.2531,,0.0481
2732,-0.027,0.6619,0.1092,-1.2531,,0.027
2733,-0.1319,0.6619,0.1221,-1.2788,,0.1319
2734,-0.0771,0.6619,0.1092,-1.3045,,0.0771
2735,0.0067,0.6876,0.1092,-1.3045,,0.0067
2736,0.082,0.6876,0.1221,-1.266,,0.082
2737,0.134,0.6748,0.1092,-1.2917,,0.134
2738,0.12,0.6876,0.0964,-1.2788,,0.12
2739,0.0929,0.7005,0.1092,-1.2917,,0.0929
2740,0.0669,0.7005,0.0964,-1.3045,,0.0669
2741,0.1054,0.6876,0.0964,-1.3045,,0.1054
2742,0.1448,0.7005,0.0964,-1.2788,,0.1448
2743,0.2427,0.7005,0.0835,-1.3045,,0.2427
2744,0.2008,0.7005,0.0707,-1.2917,,0.2008
2745,0.109,0.7133,0.0835,-1.3045,,0.109
2746,0.055,0.7133,0.0964,-1.2917,,0.055
2747,0.0771,0.7262,0.0835,-1.3045,,0.0771
2748,0.0573,0.7262,0.0835,-1.3174,,0.0573
2749,0.0953,0.7262,0.0835,-1.3045,,0.0953
2750,0.1208,0.7133,0.0835,-1.3431,,0.1208
2751,0.0993,0.7133,0.0835,-1.3302,,0.0993
2752,0.0362,0.7262,0.0964,-1.356,,0.0362
2753,0.0021,0.7133,0.0964,-1.356,,0.0021
2754,-0.1189,0.7005,0.0964,-1.3688,,0.1189
2755,-0.1638,0.7133,0.1092,-1.3817,,0.1638
2756,-0.116,0.7005,0.1092,-1.3688,,0.116
2757,-0.0325,0.7262,0.1221,-1.3817,,0.0325
2758,-0.0124,0.7133,0.1221,-1.3817,,0.0124
2759,0.0053,0.7005,0.1221,-1.3817,,0.0053
2760,-0.0489,0.7133,0.135,-1.3945,,0.0489
2761,-0.1917,0.7262,0.135,-1.3688,,0.1917
2762,-0.0735,0.7262,0.1478,-1.4074,,0.0735
2763,-0.0478,0.739,0.1478,-1.3945,,0.0478
2764,-0.0272,0.7262,0.1478,-1.4074,,0.0272
2765,-0.0302,0.7262,0.1478,-1.4074,,0.0302
2766,-0.0155,0.7262,0.1478,-1.4202,,0.0155
2767,0.0317,0.7262,0.1607,-1.3945,,0.0317
2768,0.0541,0.7262,0.1607,-1.4074,,0.0541
2769,0.0419,0.7133,0.1607,-1.4331,,0.0419
2770,0.049,0.7133,0.1607,-1.4331,,0.049
2771,0.0753,0.7262,0.1478,-1.4459,,0.0753
2772,0.0556,0.7133,0.1478,-1.4202,,0.0556
2773,0.0777,0.7262,0.1478,-1.4459,,0.0777
2774,0.1094,0.739,0.1478,-1.4459,,0.1094
2775,0.1219,0.7262,0.1478,-1.4331,,0.1219
2776,0.1363,0.7262,0.1478,-1.4459,,0.1363
2777,0.1069,0.7262,0.1478,-1.4331,,0.1069
2778,0.0609,0.739,0.1478,-1.4331,,0.0609
2779,-0.0642,0.7262,0.1478,-1.4716,,0.0642
2780,-0.1585,0.7133,0.135,-1.4459,,0.1585
2781,-0.1466,0.7133,0.135,-1.4331,,0.1466
2782,-0.044,0.7005,0.135,-1.4459,,0.044
2783,-0.006,0.7005,0.135,-1.4459,,0.006
2784,0.0226,0.6876,0.135,-1.4459,,0.0226
2785,-0.0145,0.6748,0.135,-1.4588,,0.0145
2786,-0.0042,0.6748,0.1478,-1.4588,,0.0042
2787,0.0894,0.6748,0.135,-1.4588,,0.0894
2788,0.0942,0.6748,0.1221,-1.4459,,0.0942
2789,0.128,0.6748,0.135,-1.4588,,0.128
2790,0.1189,0.6619,0.1478,-1.4459,,0.1189
2791,0.102,0.6491,0.135,-1.4459,,0.102
2792,0.0593,0.6491,0.135,-1.4459,,0.0593
2793,-0.0004,0.7005,0.1478,-1.4588,,0.0004
2794,-0.1023,0.6748,0.135,-1.4331,,0.1023
2795,-0.1345,0.6491,0.1478,-1.4588,,0.1345
2796,-0.099,0.6491,0.1478,-1.4459,,0.099
2797,-0.0294,0.6362,0.135,-1.4459,,0.0294
2798,0.0207,0.6491,0.135,-1.4459,,0.0207
2799,0.0582,0.6362,0.1478,-1.4331,,0.0582
2800,0.1086,0.6362,0.1478,-1.4202,,0.1086
2801,0.1365,0.6234,0.1478,-1.4459,,0.1365
2802,0.1751,0.5976,0.1478,-1.4331,,0.1751
2803,0.1734,0.6105,0.1478,-1.4331,,0.1734
2804,0.1208,0.6105,0.1478,-1.4459,,0.1208
2805,-0.0471,0.5848,0.1607,-1.4331,,0.0471
2806,-0.0452,0.5976,0.1607,-1.4588,,0.0452
2807,-0.0818,0.5719,0.1607,-1.4588,,0.0818
2808,-0.0554,0.5719,0.1478,-1.4459,,0.0554
2809,-0.0434,0.6105,0.1735,-1.4716,,0.0434
2810,-0.0014,0.5719,0.1607,-1.4716,,0.0014
2811,0.0501,0.5334,0.1607,-1.4845,,0.0501
