製品名 ,ワイヤレス筋電センサ（乾式＋加速度） ,,,,,
計測時ID ,12,,,,,
計測開始時刻 ,00/00/00 00:10 ,,,,,
サンプリング周波数 ,1000,,,,,
シーケンス数 ,20000,,,,,
PGAゲイン ,x12 ,,,,,
補正値キー ,FFFFFFFFFFFFFFFFFFFFFFFFFFFFFFFF ,,,,,
コメント , ,,,,,
ファイル保存形式, 演算データ,,,,,
シーケンス番号, EMG01, 加速度X, 加速度Y, 加速度Z ,,
1,0,0.6491,0.135,-1.2274,,0
2,-0.2475,1.6773,-0.0321,-0.4177,,0.2475
3,-0.1401,1.6259,-0.135,-0.3149,,0.1401
4,-0.0943,1.5616,-0.1864,-0.2249,,0.0943
5,0.173,1.5102,-0.2506,-0.1221,,0.173
6,0.3682,1.4459,-0.302,-0.0321,,0.3682
7,0.4821,1.3431,-0.3663,0.0321,,0.4821
8,0.4399,1.266,-0.4049,0.0964,,0.4399
9,0.3166,1.1889,-0.4434,0.1735,,0.3166
10,0.2441,1.1375,-0.482,0.2763,,0.2441
11,0.203,1.0475,-0.482,0.3663,,0.203
12,0.1933,0.9832,-0.4948,0.4691,,0.1933
13,0.12,0.9447,-0.5205,0.5205,,0.12
14,-0.0008,0.919,-0.5205,0.5462,,0.0008
15,0.0544,0.8676,-0.5334,0.6105,,0.0544
16,0.0501,0.8161,-0.4948,0.6619,,0.0501
17,-0.058,0.7519,-0.4691,0.7262,,0.058
18,-0.0071,0.7005,-0.4434,0.7647,,0.0071
19,0.0508,0.6491,-0.4177,0.7904,,0.0508
20,-0.1175,0.5976,-0.3792,0.8161,,0.1175
21,-0.168,0.5462,-0.3534,0.8418,,0.168
22,-0.0021,0.5077,-0.3406,0.8161,,0.0021
23,0.1244,0.482,-0.2763,0.8547,,0.1244
24,0.1406,0.4434,-0.2506,0.8676,,0.1406
25,0.0097,0.392,-0.1864,0.8676,,0.0097
26,-0.1935,0.3406,-0.1607,0.8418,,0.1935
27,-0.4045,0.2892,-0.1221,0.8033,,0.4045
28,-0.1711,0.2892,-0.0835,0.8033,,0.1711
29,-0.1003,0.2635,-0.0321,0.7776,,0.1003
30,0.0029,0.2121,0.0193,0.7647,,0.0029
31,0.107,0.1992,0.0578,0.7005,,0.107
32,0.1157,0.1607,0.0835,0.6876,,0.1157
33,-0.0557,0.1735,0.1478,0.6491,,0.0557
34,-0.1966,0.135,0.1735,0.5976,,0.1966
35,-0.1771,0.1221,0.2121,0.5334,,0.1771
36,-0.056,0.1221,0.2378,0.482,,0.056
37,0.0288,0.135,0.2378,0.4177,,0.0288
38,0.0427,0.1607,0.2763,0.3406,,0.0427
39,0.0404,0.1607,0.2892,0.2506,,0.0404
40,0.0175,0.1607,0.302,0.2249,,0.0175
41,-0.0379,0.1864,0.302,0.135,,0.0379
42,0.0141,0.2121,0.3149,0.0064,,0.0141
43,0.1261,0.2378,0.3149,-0.0578,,0.1261
44,0.1496,0.2635,0.3149,-0.1607,,0.1496
45,0.1669,0.3149,0.302,-0.2506,,0.1669
46,0.1925,0.3534,0.2763,-0.3792,,0.1925
47,0.1488,0.4049,0.2506,-0.4306,,0.1488
48,0.1198,0.4948,0.2249,-0.5848,,0.1198
49,0.061,0.5462,0.1607,-0.7005,,0.061
50,-0.0376,0.6234,0.135,-0.8418,,0.0376
51,-0.3182,0.7005,0.0578,-0.9832,,0.3182
52,-0.4723,0.7776,-0.0064,-1.0989,,0.4723
53,-0.4793,0.8547,-0.0707,-1.2274,,0.4793
54,-0.521,0.9575,-0.1478,-1.3431,,0.521
55,-0.3425,1.0218,-0.1992,-1.4845,,0.3425
56,-0.0979,1.0989,-0.2892,-1.6387,,0.0979
57,0.2664,1.2017,-0.3663,-1.7672,,0.2664
58,0.4667,1.3045,-0.4434,-1.9343,,0.4667
59,0.5627,1.4202,-0.5077,-2.0114,,0.5627
60,0.5142,1.5102,-0.5976,-2.1914,,0.5142
61,0.4126,1.6387,-0.6619,-2.307,,0.4126
62,0.0245,1.7415,-0.7262,-2.3842,,0.0245
63,-0.3182,1.8572,-0.8033,-2.4741,,0.3182
64,-0.4126,1.9729,-0.8676,-2.5512,,0.4126
65,-0.5003,2.1014,-0.919,-2.6412,,0.5003
66,-0.4719,2.2171,-0.9704,-2.6926,,0.4719
67,-0.2372,2.3456,-0.9961,-2.7826,,0.2372
68,0.0418,2.487,-1.0346,-2.7955,,0.0418
69,0.4009,2.6284,-1.0346,-2.8597,,0.4009
70,0.6807,2.744,-1.0218,-2.8983,,0.6807
71,0.3535,2.8854,-0.9575,-2.9368,,0.3535
72,-0.0977,3.0397,-0.8676,-2.9625,,0.0977
73,-0.3367,3.1682,-0.8033,-2.924,,0.3367
74,-0.5355,3.3224,-0.7262,-2.9368,,0.5355
75,-0.4927,3.4381,-0.6105,-2.8854,,0.4927
76,-0.1319,3.5666,-0.5334,-2.8083,,0.1319
77,0.3488,3.6437,-0.4177,-2.7055,,0.3488
78,0.7043,3.7337,-0.3406,-2.5641,,0.7043
79,0.8392,3.7851,-0.2378,-2.3713,,0.8392
80,0.688,3.8108,-0.135,-2.0886,,0.688
81,0.2865,3.8108,-0.0578,-1.8444,,0.2865
82,-0.1151,3.7723,0.0064,-1.5873,,0.1151
83,-0.5887,3.708,0.0578,-1.2917,,0.5887
84,-0.5335,3.6309,0.1092,-0.9832,,0.5335
85,-0.3842,3.5281,0.1221,-0.7005,,0.3842
86,-0.1865,3.4252,0.135,-0.392,,0.1865
87,0.0083,3.271,0.135,-0.1607,,0.0083
88,0.0823,3.1039,0.135,0.1092,,0.0823
89,-0.072,2.9111,0.0964,0.2892,,0.072
90,-0.0097,2.6541,0.0964,0.4948,,0.0097
91,0.3319,2.4741,0.0578,0.6234,,0.3319
92,0.6385,2.2556,0.0321,0.7133,,0.6385
93,0.5393,2.0371,0.0193,0.7519,,0.5393
94,0.0522,1.8058,0.0321,0.7133,,0.0522
95,-0.1569,1.5487,0.0964,0.6876,,0.1569
96,-0.1888,1.266,0.1478,0.5848,,0.1888
97,-0.1625,1.0089,0.2378,0.482,,0.1625
98,-0.1543,0.739,0.3277,0.3406,,0.1543
99,0.0261,0.4691,0.4434,0.2249,,0.0261
100,-0.0069,0.2121,0.5719,0.0964,,0.0069
101,-0.0511,-0.0835,0.7133,-0.0835,,0.0511
102,-0.2347,-0.3277,0.8676,-0.1607,,0.2347
103,-0.5611,-0.5205,1.0089,-0.3149,,0.5611
104,-0.6554,-0.7904,1.1118,-0.4434,,0.6554
105,-1.0995,-1.0346,1.2017,-0.5848,,1.0995
106,-0.9818,-1.2274,1.266,-0.7262,,0.9818
107,-0.3054,-1.3945,1.3045,-0.8804,,0.3054
108,-0.0526,-1.5873,1.2917,-1.0475,,0.0526
109,-0.3371,-1.7415,1.2788,-1.2531,,0.3371
110,-1.0612,-1.9215,1.2146,-1.4716,,1.0612
111,-1.2314,-2.0371,1.1246,-1.7158,,1.2314
112,-0.3309,-2.2042,1.0475,-1.9986,,0.3309
113,0.8993,-2.4613,0.9575,-2.2685,,0.8993
114,1.6943,-2.6926,0.8676,-2.5127,,1.6943
115,2.0919,-2.834,0.7647,-2.7312,,2.0919
116,1.4962,-2.9625,0.6619,-2.8083,,1.4962
117,0.8548,-3.0782,0.5976,-2.8212,,0.8548
118,0.6697,-3.2196,0.5334,-2.7826,,0.6697
119,0.1923,-3.3353,0.5077,-2.6284,,0.1923
120,-0.0192,-3.4124,0.5077,-2.4227,,0.0192
121,0.2796,-3.4509,0.5077,-2.1914,,0.2796
122,0.555,-3.4381,0.5077,-1.9472,,0.555
123,0.359,-3.3995,0.4948,-1.7544,,0.359
124,-0.0218,-3.3224,0.482,-1.5616,,0.0218
125,-0.3656,-3.2196,0.482,-1.3945,,0.3656
126,-0.4503,-3.0654,0.482,-1.3302,,0.4503
127,-0.1247,-2.8983,0.482,-1.3302,,0.1247
128,-0.0532,-2.7055,0.482,-1.4074,,0.0532
129,-0.3271,-2.5127,0.4691,-1.4716,,0.3271
130,-0.4334,-2.3199,0.482,-1.6387,,0.4334
131,-0.2927,-2.1528,0.4948,-1.7415,,0.2927
132,0.0961,-1.9986,0.5077,-1.8958,,0.0961
133,0.4381,-1.8572,0.5462,-2.0243,,0.4381
134,0.5978,-1.7801,0.5719,-2.1914,,0.5978
135,0.5159,-1.6901,0.6234,-2.307,,0.5159
136,0.2104,-1.6387,0.6619,-2.4613,,0.2104
137,-0.765,-1.5873,0.7005,-2.5641,,0.765
138,-1.4211,-1.5616,0.7647,-2.6284,,1.4211
139,-2.4001,-1.5487,0.8161,-2.6412,,2.4001
140,-2.4001,-1.5487,0.8418,-2.6412,,2.4001
141,-2.4001,-1.5102,0.8804,-2.6155,,2.4001
142,-1.6782,-1.4845,0.8933,-2.5512,,1.6782
143,0.6812,-1.4202,0.8804,-2.5127,,0.6812
144,2.4,-1.3688,0.8547,-2.5127,,2.4
145,2.4,-1.2788,0.829,-2.4613,,2.4
146,2.4,-1.2017,0.7904,-2.4613,,2.4
147,2.4,-1.0989,0.7519,-2.4356,,2.4
148,1.5955,-0.9832,0.7005,-2.4227,,1.5955
149,0.7122,-0.8804,0.6491,-2.4356,,0.7122
150,0.0272,-0.7647,0.6234,-2.4227,,0.0272
151,-0.678,-0.6491,0.5848,-2.3713,,0.678
152,-0.748,-0.5334,0.5462,-2.3585,,0.748
153,-0.6202,-0.4306,0.5077,-2.3328,,0.6202
154,-0.206,-0.302,0.4948,-2.2942,,0.206
155,0.5234,-0.2249,0.482,-2.2428,,0.5234
156,0.2631,-0.135,0.4691,-2.1785,,0.2631
157,-0.0573,-0.045,0.4948,-2.14,,0.0573
158,-0.5467,0.0321,0.5077,-2.1143,,0.5467
159,-0.6218,0.1221,0.5205,-2.0757,,0.6218
160,0.0693,0.1607,0.5462,-2.0757,,0.0693
161,0.6043,0.2506,0.5848,-2.05,,0.6043
162,0.5917,0.2892,0.6234,-2.0371,,0.5917
163,0.5853,0.3406,0.6491,-2.0243,,0.5853
164,0.2413,0.3792,0.6876,-2.0114,,0.2413
165,-0.3363,0.4177,0.7133,-1.9729,,0.3363
166,-0.3572,0.4306,0.7519,-1.9729,,0.3572
167,-0.1814,0.4563,0.7776,-1.9857,,0.1814
168,0.1833,0.4948,0.8033,-1.96,,0.1833
169,0.1862,0.4948,0.8033,-1.9729,,0.1862
170,-0.3019,0.5205,0.829,-1.96,,0.3019
171,-0.4449,0.5077,0.8418,-1.96,,0.4449
172,-0.2879,0.5205,0.8418,-1.9343,,0.2879
173,-0.6555,0.5462,0.8676,-1.9215,,0.6555
174,-1.5144,0.5591,0.8418,-1.9215,,1.5144
175,-1.88,0.5591,0.8418,-1.9215,,1.88
176,-1.9783,0.5719,0.829,-1.9215,,1.9783
177,-0.7883,0.5848,0.829,-1.9215,,0.7883
178,0.5066,0.6105,0.8161,-1.9343,,0.5066
179,0.6212,0.6105,0.8033,-1.9472,,0.6212
180,0.5959,0.6234,0.7904,-1.9729,,0.5959
181,-0.3269,0.6491,0.7776,-1.9343,,0.3269
182,-0.4592,0.6748,0.7519,-1.9472,,0.4592
183,0.1829,0.7262,0.739,-1.9472,,0.1829
184,1.2965,0.7519,0.7133,-1.9472,,1.2965
185,1.8515,0.7904,0.6876,-1.9343,,1.8515
186,1.4935,0.8161,0.6619,-1.96,,1.4935
187,0.8816,0.8547,0.6362,-1.9086,,0.8816
188,0.881,0.919,0.5976,-1.9086,,0.881
189,1.1863,0.9447,0.5719,-1.8701,,1.1863
190,0.9883,0.9704,0.5205,-1.8444,,0.9883
191,0.593,0.9961,0.4948,-1.8315,,0.593
192,0.41,1.0346,0.4434,-1.8186,,0.41
193,-0.7297,1.0603,0.4049,-1.7801,,0.7297
194,-1.096,1.0732,0.3663,-1.7544,,1.096
195,-1.2513,1.0989,0.3406,-1.7287,,1.2513
196,-0.3598,1.1503,0.3149,-1.7158,,0.3598
197,0.68,1.176,0.2763,-1.6773,,0.68
198,1.111,1.2146,0.2506,-1.6516,,1.111
199,1.0803,1.266,0.2378,-1.6644,,1.0803
200,-1.0076,1.3045,0.2249,-1.613,,1.0076
201,-2.2741,1.356,0.2121,-1.5873,,2.2741
202,-2.4001,1.3817,0.2121,-1.5744,,2.4001
203,-1.0068,1.4588,0.2121,-1.5359,,1.0068
204,0.8378,1.4716,0.2121,-1.5359,,0.8378
205,1.9098,1.4973,0.2121,-1.4973,,1.9098
206,2.1842,1.5487,0.1992,-1.4588,,2.1842
207,1.6079,1.5616,0.1992,-1.4459,,1.6079
208,0.2063,1.6002,0.1992,-1.3817,,0.2063
209,-0.5013,1.6259,0.1992,-1.356,,0.5013
210,-0.6569,1.6516,0.2249,-1.3302,,0.6569
211,-0.5594,1.6516,0.2121,-1.2917,,0.5594
212,-0.0463,1.6773,0.2249,-1.2788,,0.0463
213,0.2684,1.6901,0.2249,-1.2274,,0.2684
214,0.414,1.6901,0.2249,-1.2146,,0.414
215,0.4379,1.7287,0.2121,-1.2274,,0.4379
216,0.2761,1.7544,0.2249,-1.176,,0.2761
217,0.2078,1.7415,0.2378,-1.2017,,0.2078
218,0.1288,1.7544,0.2121,-1.1632,,0.1288
219,-0.0329,1.7287,0.2249,-1.1889,,0.0329
220,-0.0749,1.7158,0.2249,-1.1632,,0.0749
221,-0.0398,1.703,0.1992,-1.1632,,0.0398
222,-0.1039,1.703,0.1864,-1.1632,,0.1039
223,-0.3385,1.703,0.1607,-1.1246,,0.3385
224,-0.3799,1.6773,0.135,-1.1375,,0.3799
225,-0.4184,1.6773,0.135,-1.1118,,0.4184
226,-0.2712,1.6516,0.0964,-1.086,,0.2712
227,-0.1017,1.6259,0.0964,-1.0732,,0.1017
228,-0.069,1.6002,0.0321,-1.0218,,0.069
229,-0.0852,1.6002,0.045,-1.0218,,0.0852
230,-0.0827,1.5744,0.0193,-0.9704,,0.0827
231,-0.1081,1.5487,-0.0064,-0.9575,,0.1081
232,-0.1116,1.523,-0.0321,-0.9318,,0.1116
233,-0.0823,1.5487,-0.0578,-0.9061,,0.0823
234,-0.0379,1.523,-0.0707,-0.8804,,0.0379
235,-0.0545,1.5102,-0.0835,-0.8676,,0.0545
236,0.0063,1.5102,-0.1092,-0.8547,,0.0063
237,0.1065,1.523,-0.135,-0.8418,,0.1065
238,0.1383,1.523,-0.1478,-0.8418,,0.1383
239,0.0516,1.523,-0.1607,-0.8033,,0.0516
240,-0.0924,1.5487,-0.1607,-0.7776,,0.0924
241,-0.1296,1.5487,-0.1864,-0.7647,,0.1296
242,-0.0757,1.5616,-0.1992,-0.7519,,0.0757
243,-0.0223,1.5744,-0.1992,-0.739,,0.0223
244,-0.0145,1.5873,-0.2121,-0.7262,,0.0145
245,-0.0097,1.6002,-0.2378,-0.6748,,0.0097
246,0.0259,1.6259,-0.2378,-0.6748,,0.0259
247,0.0101,1.6259,-0.2635,-0.6748,,0.0101
248,0.0299,1.6516,-0.2635,-0.6105,,0.0299
249,0.0231,1.6259,-0.2763,-0.5976,,0.0231
250,-0.006,1.613,-0.2892,-0.5334,,0.006
251,-0.0108,1.613,-0.302,-0.4948,,0.0108
252,-0.054,1.613,-0.302,-0.482,,0.054
253,-0.0677,1.6259,-0.3277,-0.4563,,0.0677
254,-0.0316,1.6259,-0.3534,-0.4306,,0.0316
255,-0.0312,1.6516,-0.3792,-0.4049,,0.0312
256,0.0241,1.6644,-0.3792,-0.3534,,0.0241
257,0.062,1.6644,-0.392,-0.302,,0.062
258,0.1133,1.6644,-0.4049,-0.2635,,0.1133
259,0.0664,1.6644,-0.4177,-0.2378,,0.0664
260,0.0057,1.6644,-0.4049,-0.2121,,0.0057
261,0.0311,1.6644,-0.4177,-0.1864,,0.0311
262,0.0087,1.6516,-0.4177,-0.1864,,0.0087
263,0.0784,1.6516,-0.4049,-0.1478,,0.0784
264,0.1463,1.6259,-0.4177,-0.1478,,0.1463
265,0.1619,1.6002,-0.4049,-0.135,,0.1619
266,0.0599,1.5873,-0.392,-0.0964,,0.0599
267,-0.0105,1.5744,-0.392,-0.0964,,0.0105
268,-0.1457,1.5487,-0.3792,-0.135,,0.1457
269,-0.2672,1.523,-0.3792,-0.135,,0.2672
270,-0.4034,1.4973,-0.3792,-0.135,,0.4034
271,-0.3077,1.4588,-0.3792,-0.1221,,0.3077
272,-0.1876,1.4331,-0.3534,-0.1092,,0.1876
273,-0.0858,1.3945,-0.3663,-0.1221,,0.0858
274,-0.0199,1.3431,-0.3534,-0.1221,,0.0199
275,0.0491,1.3045,-0.3534,-0.135,,0.0491
276,0.0636,1.266,-0.3663,-0.1221,,0.0636
277,0.0327,1.2274,-0.3534,-0.1092,,0.0327
278,0.0792,1.1889,-0.3663,-0.1221,,0.0792
279,0.05,1.1503,-0.3663,-0.135,,0.05
280,0.0431,1.0989,-0.3534,-0.135,,0.0431
281,0.0379,1.0603,-0.3406,-0.1478,,0.0379
282,0.0413,1.0346,-0.3534,-0.1478,,0.0413
283,0.0693,0.9961,-0.3534,-0.1992,,0.0693
284,0.1258,0.9704,-0.3534,-0.2506,,0.1258
285,0.0562,0.9575,-0.3663,-0.3149,,0.0562
286,0.0719,0.919,-0.3792,-0.3792,,0.0719
287,0.0639,0.8933,-0.3663,-0.3792,,0.0639
288,0.0899,0.8547,-0.3792,-0.4563,,0.0899
289,0.0779,0.829,-0.392,-0.482,,0.0779
290,-0.1056,0.8033,-0.4049,-0.5591,,0.1056
291,0.0485,0.7904,-0.392,-0.6362,,0.0485
292,0.0814,0.7776,-0.4177,-0.6876,,0.0814
293,0.0042,0.7647,-0.4306,-0.739,,0.0042
294,-0.1079,0.7519,-0.4434,-0.7647,,0.1079
295,-0.1343,0.7647,-0.4563,-0.8161,,0.1343
296,-0.1631,0.7519,-0.4691,-0.8676,,0.1631
297,-0.118,0.7776,-0.482,-0.8933,,0.118
298,-0.114,0.7904,-0.482,-0.9318,,0.114
299,-0.0675,0.8033,-0.4691,-0.9575,,0.0675
300,-0.0907,0.8033,-0.482,-1.0089,,0.0907
301,-0.0773,0.8033,-0.4434,-1.0475,,0.0773
302,-0.0793,0.7776,-0.4177,-1.0732,,0.0793
303,-0.0987,0.7519,-0.3663,-1.1118,,0.0987
304,-0.0684,0.7133,-0.3663,-1.1375,,0.0684
305,0.0428,0.6491,-0.3277,-1.1889,,0.0428
306,0.1356,0.5976,-0.2892,-1.2146,,0.1356
307,0.2552,0.5462,-0.2378,-1.2403,,0.2552
308,0.2246,0.5205,-0.2121,-1.266,,0.2246
309,0.1071,0.4434,-0.1735,-1.2917,,0.1071
310,-0.2968,0.3663,-0.1221,-1.3174,,0.2968
311,-0.2451,0.2892,-0.0578,-1.3302,,0.2451
312,-0.1698,0.2378,0.0193,-1.3817,,0.1698
313,-0.1876,0.1607,0.0707,-1.4331,,0.1876
314,-0.248,0.1221,0.135,-1.523,,0.248
315,-0.1711,0.0707,0.1864,-1.5873,,0.1711
316,-0.0241,0.0321,0.2121,-1.703,,0.0241
317,0.129,-0.0064,0.2763,-1.7929,,0.129
318,0.2476,-0.0321,0.3149,-1.9472,,0.2476
319,0.3698,-0.0707,0.3663,-2.0886,,0.3698
320,0.292,-0.1221,0.4049,-2.2299,,0.292
321,0.0891,-0.1735,0.4434,-2.3585,,0.0891
322,-0.079,-0.2249,0.482,-2.5127,,0.079
323,-0.1761,-0.2892,0.5077,-2.6669,,0.1761
324,-0.2433,-0.3792,0.5591,-2.744,,0.2433
325,-0.1669,-0.4691,0.5976,-2.8469,,0.1669
326,-0.0847,-0.5848,0.6491,-2.924,,0.0847
327,0.028,-0.6876,0.6748,-2.924,,0.028
328,0.0877,-0.8161,0.7005,-2.9368,,0.0877
329,0.1817,-0.9318,0.7262,-2.9754,,0.1817
330,0.315,-1.0732,0.7262,-2.9497,,0.315
331,0.3707,-1.2274,0.7262,-2.9625,,0.3707
332,0.3051,-1.356,0.7262,-2.924,,0.3051
333,-0.0026,-1.4845,0.7133,-2.8597,,0.0026
334,-0.1738,-1.6516,0.7133,-2.8212,,0.1738
335,-0.1828,-1.8315,0.7133,-2.744,,0.1828
336,-0.1279,-1.9729,0.7262,-2.6798,,0.1279
337,-0.1622,-2.1271,0.7262,-2.6412,,0.1622
338,-0.2271,-2.2685,0.7262,-2.5641,,0.2271
339,-0.161,-2.4099,0.7262,-2.4998,,0.161
340,-0.1384,-2.5898,0.7262,-2.397,,0.1384
341,-0.2503,-2.744,0.7133,-2.3199,,0.2503
342,-0.2518,-2.9111,0.7005,-2.1785,,0.2518
343,-0.284,-3.0911,0.6876,-1.9857,,0.284
344,-0.1448,-3.271,0.6491,-1.8058,,0.1448
345,-0.0552,-3.4381,0.6105,-1.5744,,0.0552
346,0.0634,-3.5795,0.5719,-1.2917,,0.0634
347,0.1722,-3.6823,0.5205,-1.0346,,0.1722
348,0.196,-3.7337,0.4691,-0.7776,,0.196
349,0.1387,-3.7208,0.4049,-0.5205,,0.1387
350,0.1403,-3.6951,0.3534,-0.2892,,0.1403
351,0.1179,-3.5666,0.3277,-0.1478,,0.1179
352,-0.0097,-3.4381,0.302,-0.0835,,0.0097
353,-0.1462,-3.2196,0.3149,-0.0578,,0.1462
354,-0.0753,-2.9882,0.3277,-0.1478,,0.0753
355,0.1058,-2.6926,0.3792,-0.2506,,0.1058
356,0.1463,-2.3842,0.4306,-0.4306,,0.1463
357,0.151,-2.0757,0.482,-0.6748,,0.151
358,0.2681,-1.7415,0.5462,-0.9061,,0.2681
359,0.4464,-1.4074,0.6234,-1.086,,0.4464
360,0.5649,-1.0989,0.6619,-1.266,,0.5649
361,0.5518,-0.7904,0.7262,-1.4074,,0.5518
362,0.5255,-0.5334,0.8033,-1.5359,,0.5255
363,0.3844,-0.2892,0.9061,-1.613,,0.3844
364,0.2562,-0.0835,1.0089,-1.6773,,0.2562
365,0.0635,0.1092,1.086,-1.703,,0.0635
366,-0.2863,0.302,1.1632,-1.7158,,0.2863
367,-0.4251,0.5077,1.1889,-1.6773,,0.4251
368,-0.4518,0.6748,1.2146,-1.6644,,0.4518
369,-0.4914,0.8418,1.2274,-1.6387,,0.4914
370,-0.3877,1.0218,1.2017,-1.5873,,0.3877
371,-0.2536,1.1889,1.176,-1.5359,,0.2536
372,-0.1196,1.356,1.1503,-1.4459,,0.1196
373,-0.002,1.5102,1.086,-1.4074,,0.002
374,0.1021,1.6387,1.0603,-1.3688,,0.1021
375,0.2079,1.7415,1.0475,-1.356,,0.2079
376,0.1602,1.8701,0.9832,-1.3045,,0.1602
377,0.2008,1.9986,0.9318,-1.3174,,0.2008
378,0.1513,2.1143,0.8676,-1.3817,,0.1513
379,0.1259,2.2428,0.8161,-1.4331,,0.1259
380,-0.0384,2.3585,0.7904,-1.5102,,0.0384
381,-0.0612,2.4613,0.739,-1.5744,,0.0612
382,0.0888,2.5898,0.6876,-1.6644,,0.0888
383,0.031,2.7055,0.6234,-1.7415,,0.031
384,0.0072,2.8083,0.5462,-1.8186,,0.0072
385,-0.0809,2.9368,0.4948,-1.9086,,0.0809
386,-0.0572,3.0011,0.4306,-1.9986,,0.0572
387,-0.0147,3.0525,0.3406,-2.1143,,0.0147
388,-0.0372,3.1425,0.2506,-2.2942,,0.0372
389,-0.0413,3.2453,0.1735,-2.5127,,0.0413
390,0.1342,3.3867,0.0964,-2.7826,,0.1342
391,0.1691,3.5538,-0.0064,-3.0397,,0.1691
392,0.0208,3.708,-0.0835,-3.361,,0.0208
393,-0.0231,3.8622,-0.1221,-3.6052,,0.0231
394,-0.0811,3.9779,-0.1607,-3.8108,,0.0811
395,-0.1233,4.0422,-0.1735,-3.8494,,0.1233
396,-0.1022,4.055,-0.1864,-3.8237,,0.1022
397,-0.0741,4.0422,-0.2121,-3.6823,,0.0741
398,-0.099,4.0165,-0.2506,-3.4766,,0.099
399,0.0146,3.965,-0.2892,-3.2453,,0.0146
400,-0.0582,3.9265,-0.3277,-3.0268,,0.0582
401,-0.5895,3.8494,-0.3534,-2.8083,,0.5895
402,-0.9558,3.7851,-0.3534,-2.6669,,0.9558
403,-0.8386,3.7337,-0.3534,-2.5512,,0.8386
404,-0.3823,3.618,-0.3406,-2.4484,,0.3823
405,0.2264,3.4895,-0.3149,-2.3456,,0.2264
406,0.7888,3.3867,-0.2763,-2.2942,,0.7888
407,0.7433,3.271,-0.2378,-2.2428,,0.7433
408,0.5807,3.1553,-0.2121,-2.1914,,0.5807
409,0.2903,3.0268,-0.1735,-2.2171,,0.2903
410,0.228,2.9111,-0.135,-2.1657,,0.228
411,0.2854,2.7826,-0.1092,-2.1271,,0.2854
412,0.2552,2.6669,-0.0707,-2.0886,,0.2552
413,0.2222,2.5512,-0.0193,-2.05,,0.2222
414,0.1833,2.4484,0.0193,-1.9472,,0.1833
415,0.2484,2.3713,0.045,-1.8572,,0.2484
416,0.2287,2.2942,0.0707,-1.7158,,0.2287
417,-0.0995,2.1914,0.1092,-1.613,,0.0995
418,-0.1595,2.14,0.1221,-1.4845,,0.1595
419,-0.2749,2.05,0.1607,-1.3817,,0.2749
420,-0.4052,1.96,0.1992,-1.2403,,0.4052
421,-0.1669,1.9086,0.2378,-1.1503,,0.1669
422,0.0497,1.8572,0.2378,-1.0346,,0.0497
423,-0.0613,1.7929,0.2506,-0.9704,,0.0613
424,-0.2418,1.7415,0.2635,-0.8933,,0.2418
425,-0.3023,1.703,0.2763,-0.829,,0.3023
426,-0.4047,1.6773,0.2892,-0.7904,,0.4047
427,-0.3221,1.6387,0.3149,-0.739,,0.3221
428,-0.2466,1.6002,0.3277,-0.7005,,0.2466
429,-0.1804,1.5744,0.3406,-0.7005,,0.1804
430,0.1821,1.5487,0.3534,-0.6876,,0.1821
431,0.5619,1.5359,0.3663,-0.6876,,0.5619
432,0.635,1.523,0.3792,-0.7005,,0.635
433,0.622,1.5616,0.3663,-0.7133,,0.622
434,0.4192,1.5359,0.3792,-0.7647,,0.4192
435,0.1374,1.523,0.392,-0.7519,,0.1374
436,-0.0153,1.5487,0.4177,-0.7519,,0.0153
437,-0.2363,1.5487,0.4177,-0.7647,,0.2363
438,-0.255,1.5744,0.4049,-0.8033,,0.255
439,-0.1829,1.5744,0.4049,-0.829,,0.1829
440,0.0444,1.6002,0.392,-0.8161,,0.0444
441,0.206,1.6002,0.3792,-0.7776,,0.206
442,0.2933,1.6002,0.3792,-0.7776,,0.2933
443,0.425,1.6002,0.3534,-0.7647,,0.425
444,0.491,1.613,0.3663,-0.7133,,0.491
445,0.3815,1.613,0.3277,-0.6748,,0.3815
446,0.2595,1.613,0.302,-0.6362,,0.2595
447,0.1529,1.5616,0.2892,-0.5848,,0.1529
448,0.1068,1.5744,0.2506,-0.5334,,0.1068
449,0.0492,1.523,0.2121,-0.4691,,0.0492
450,-0.0207,1.4716,0.1992,-0.4049,,0.0207
451,-0.1575,1.4459,0.1607,-0.3149,,0.1575
452,-0.1654,1.4074,0.1478,-0.2506,,0.1654
453,-0.1458,1.3688,0.1221,-0.1607,,0.1458
454,-0.0578,1.3174,0.0578,-0.0578,,0.0578
455,-0.0215,1.2274,0.0193,-0.0064,,0.0215
456,0.0861,1.1503,-0.0321,0.0835,,0.0861
457,-0.1701,1.086,-0.0964,0.1607,,0.1701
458,-0.2477,1.0089,-0.1478,0.2378,,0.2477
459,-0.0793,0.9575,-0.2249,0.2378,,0.0793
460,-0.0979,0.9447,-0.2378,0.2635,,0.0979
461,-0.1119,0.9318,-0.2506,0.302,,0.1119
462,-0.0064,0.9061,-0.2763,0.4049,,0.0064
463,0.1418,0.8676,-0.2892,0.4563,,0.1418
464,0.1647,0.7904,-0.3277,0.482,,0.1647
465,0.2727,0.6876,-0.3406,0.5462,,0.2727
466,0.2053,0.6362,-0.3534,0.6234,,0.2053
467,0.1042,0.5462,-0.3277,0.6876,,0.1042
468,0.1778,0.4563,-0.3534,0.7262,,0.1778
469,0.2658,0.4177,-0.392,0.7262,,0.2658
470,0.1477,0.3534,-0.3792,0.739,,0.1477
471,-0.0434,0.302,-0.392,0.7904,,0.0434
472,-0.1548,0.2635,-0.392,0.8033,,0.1548
473,-0.2358,0.2249,-0.3663,0.7904,,0.2358
474,-0.11,0.1478,-0.3406,0.8033,,0.11
475,-0.0097,0.0964,-0.302,0.8161,,0.0097
476,-0.1829,0.0578,-0.2506,0.8547,,0.1829
477,-0.0768,0.0064,-0.2249,0.8547,,0.0768
478,-0.064,-0.0321,-0.1864,0.8547,,0.064
479,-0.0367,-0.0835,-0.1478,0.829,,0.0367
480,0.0105,-0.1092,-0.1092,0.8161,,0.0105
481,-0.0352,-0.1478,-0.0578,0.8033,,0.0352
482,-0.1396,-0.1607,-0.0064,0.7647,,0.1396
483,-0.2751,-0.1864,0.0321,0.7262,,0.2751
484,-0.303,-0.1864,0.0707,0.6362,,0.303
485,-0.2794,-0.1992,0.1092,0.5591,,0.2794
486,-0.0755,-0.1992,0.135,0.4434,,0.0755
487,-0.0467,-0.1864,0.1607,0.3406,,0.0467
488,0.0534,-0.1478,0.1864,0.1864,,0.0534
489,0.2123,-0.1478,0.2121,0.1092,,0.2123
490,0.2865,-0.135,0.2249,-0.045,,0.2865
491,-0.3603,-0.0964,0.2378,-0.1864,,0.3603
492,-0.7741,-0.0578,0.2378,-0.3277,,0.7741
493,-1.0328,0.0064,0.2121,-0.4563,,1.0328
494,-0.9385,0.0835,0.1992,-0.6105,,0.9385
495,-0.6591,0.1221,0.1735,-0.7647,,0.6591
496,0.0705,0.1992,0.135,-0.9061,,0.0705
497,0.7561,0.2892,0.0964,-1.0089,,0.7561
498,1.1277,0.392,0.045,-1.1246,,1.1277
499,1.2644,0.482,-0.0064,-1.2788,,1.2644
500,0.9144,0.5848,-0.0835,-1.4202,,0.9144
501,0.532,0.7133,-0.1607,-1.5616,,0.532
502,0.0819,0.829,-0.2378,-1.7158,,0.0819
503,-0.336,1.0089,-0.302,-1.8829,,0.336
504,-0.4584,1.1246,-0.392,-2.0886,,0.4584
505,-0.2305,1.2917,-0.4434,-2.3199,,0.2305
506,0.0049,1.4845,-0.5205,-2.577,,0.0049
507,0.3514,1.6901,-0.5976,-2.8597,,0.3514
508,0.6172,1.9343,-0.6748,-3.1296,,0.6172
509,0.7593,2.1785,-0.739,-3.3867,,0.7593
510,0.5091,2.4356,-0.8033,-3.6309,,0.5091
511,-0.0023,2.6669,-0.8933,-3.7465,,0.0023
512,-0.4787,2.8854,-0.9575,-3.7594,,0.4787
513,-0.4898,3.0654,-1.0475,-3.6309,,0.4898
514,-0.0695,3.2067,-1.1246,-3.3867,,0.0695
515,0.1972,3.3096,-1.176,-3.0654,,0.1972
516,-0.4172,3.3738,-1.2146,-2.6541,,0.4172
517,-1.4305,3.4381,-1.2274,-2.2299,,1.4305
518,-2.2751,3.4638,-1.2274,-1.8186,,2.2751
519,-2.2024,3.3867,-1.176,-1.356,,2.2024
520,-0.8615,3.3096,-1.1118,-0.9575,,0.8615
521,0.7238,3.2067,-0.9961,-0.5976,,0.7238
522,0.9241,3.0525,-0.8804,-0.3149,,0.9241
523,0.3749,2.8983,-0.739,-0.1607,,0.3749
524,-0.2621,2.7183,-0.5591,-0.045,,0.2621
525,0.1006,2.5384,-0.3792,-0.0321,,0.1006
526,0.886,2.3842,-0.1864,-0.0707,,0.886
527,1.3471,2.2813,0.0064,-0.1735,,1.3471
528,1.1174,2.1657,0.1864,-0.2506,,1.1174
529,0.5942,2.0628,0.3663,-0.2763,,0.5942
530,0.7359,1.9215,0.5205,-0.2506,,0.7359
531,0.1108,1.7672,0.6748,-0.1864,,0.1108
532,-1.3885,1.6259,0.8161,-0.1864,,1.3885
533,-2.4001,1.3945,0.9704,-0.1607,,2.4001
534,-2.4001,1.1503,1.1246,-0.2506,,2.4001
535,-0.5052,0.919,1.2917,-0.4177,,0.5052
536,1.6434,0.7005,1.4588,-0.6748,,1.6434
537,1.9445,0.4691,1.613,-1.0089,,1.9445
538,1.5789,0.2763,1.7287,-1.3431,,1.5789
539,1.008,0.0835,1.8058,-1.6644,,1.008
540,0.9356,-0.1092,1.8572,-1.8829,,0.9356
541,0.2345,-0.3663,1.8186,-1.9857,,0.2345
542,-0.3586,-0.6491,1.7415,-1.9472,,0.3586
543,-1.704,-1.0089,1.6002,-1.8572,,1.704
544,-2.4001,-1.3302,1.4202,-1.7287,,2.4001
545,-2.4001,-1.7544,1.266,-1.613,,2.4001
546,-1.1445,-2.1657,1.0989,-1.5744,,1.1445
547,0.4447,-2.4613,0.9061,-1.613,,0.4447
548,1.1332,-2.7312,0.7519,-1.6901,,1.1332
549,1.8048,-3.0654,0.6362,-1.7929,,1.8048
550,1.0812,-3.361,0.5719,-1.8572,,1.0812
551,0.3429,-3.6823,0.5205,-1.8829,,0.3429
552,0.0333,-3.8879,0.482,-1.8829,,0.0333
553,0.764,-4.0807,0.4563,-1.8315,,0.764
554,1.416,-4.2092,0.4049,-1.7415,,1.416
555,0.2771,-4.2607,0.3792,-1.6644,,0.2771
556,-0.3886,-4.2735,0.3406,-1.5873,,0.3886
557,-1.6376,-4.2349,0.3277,-1.523,,1.6376
558,-0.6295,-4.1321,0.2892,-1.4845,,0.6295
559,0.7192,-3.9907,0.2763,-1.4588,,0.7192
560,1.7438,-3.8108,0.302,-1.4202,,1.7438
561,1.8744,-3.6566,0.3277,-1.3688,,1.8744
562,0.8992,-3.4381,0.392,-1.3817,,0.8992
563,0.1927,-3.2324,0.4177,-1.3945,,0.1927
564,0.5322,-3.0268,0.482,-1.4202,,0.5322
565,0.4782,-2.8083,0.5334,-1.4588,,0.4782
566,0.3939,-2.6027,0.6105,-1.5487,,0.3939
567,-0.9364,-2.3842,0.6619,-1.613,,0.9364
568,-2.4001,-2.1785,0.7005,-1.703,,2.4001
569,-2.4001,-1.9472,0.7262,-1.8186,,2.4001
570,-1.1083,-1.7415,0.739,-1.9343,,1.1083
571,0.9029,-1.523,0.7262,-2.05,,0.9029
572,2.4,-1.3174,0.7133,-2.14,,2.4
573,2.4,-1.0989,0.6619,-2.1914,,2.4
574,1.605,-0.9447,0.6234,-2.2171,,1.605
575,0.8526,-0.7904,0.5976,-2.2171,,0.8526
576,-0.1496,-0.6362,0.5591,-2.1785,,0.1496
577,-0.9951,-0.5077,0.5205,-2.2171,,0.9951
578,-1.1604,-0.3792,0.482,-2.1914,,1.1604
579,-1.4774,-0.2892,0.4563,-2.2042,,1.4774
580,-1.4482,-0.1864,0.4434,-2.1914,,1.4482
581,-0.6943,-0.1092,0.4306,-2.2171,,0.6943
582,0.9439,-0.0064,0.4434,-2.2299,,0.9439
583,2.0525,0.0707,0.4563,-2.2556,,2.0525
584,2.3238,0.1607,0.4691,-2.307,,2.3238
585,1.9408,0.2249,0.4691,-2.3328,,1.9408
586,1.0758,0.302,0.482,-2.2942,,1.0758
587,0.7332,0.3792,0.4948,-2.307,,0.7332
588,0.547,0.4691,0.5205,-2.2942,,0.547
589,0.4491,0.5205,0.5077,-2.2685,,0.4491
590,0.2816,0.5719,0.5462,-2.2171,,0.2816
591,0.1264,0.6362,0.5848,-2.2299,,0.1264
592,-0.2896,0.7133,0.5976,-2.1914,,0.2896
593,-0.548,0.7519,0.6105,-2.2042,,0.548
594,-0.6641,0.8161,0.6362,-2.1914,,0.6641
595,-0.7846,0.8676,0.6234,-2.1914,,0.7846
596,-0.7111,0.9061,0.6362,-2.1528,,0.7111
597,-0.285,0.9447,0.6491,-2.1914,,0.285
598,0.0135,0.9575,0.6362,-2.2042,,0.0135
599,0.0035,0.9961,0.6491,-2.2042,,0.0035
600,-0.2525,1.0218,0.6362,-2.1914,,0.2525
601,-0.4141,1.0475,0.6234,-2.2042,,0.4141
602,-0.581,1.0732,0.6234,-2.2042,,0.581
603,-1.5053,1.1246,0.5976,-2.1914,,1.5053
604,-1.9556,1.0989,0.5591,-2.2171,,1.9556
605,-1.434,1.1118,0.5591,-2.1785,,1.434
606,-0.1793,1.1118,0.5462,-2.1528,,0.1793
607,0.7182,1.1118,0.5334,-2.1271,,0.7182
608,1.1017,1.1246,0.5205,-2.1014,,1.1017
609,1.0523,1.1246,0.482,-2.0757,,1.0523
610,0.6994,1.1375,0.4691,-2.0628,,0.6994
611,-0.7254,1.1375,0.4306,-2.0114,,0.7254
612,-1.1806,1.1375,0.4177,-1.9472,,1.1806
613,-1.246,1.1375,0.4049,-1.9086,,1.246
614,-0.0087,1.1375,0.3792,-1.8572,,0.0087
615,1.361,1.1632,0.3792,-1.8315,,1.361
616,1.9813,1.1632,0.3534,-1.7672,,1.9813
617,1.9272,1.2017,0.3406,-1.7415,,1.9272
618,0.8986,1.2403,0.3406,-1.703,,0.8986
619,-0.877,1.2274,0.3277,-1.6773,,0.877
620,-1.3646,1.2403,0.3406,-1.6516,,1.3646
621,-0.7186,1.2531,0.3277,-1.6002,,0.7186
622,0.3478,1.266,0.3406,-1.5744,,0.3478
623,1.1358,1.2917,0.3406,-1.5616,,1.1358
624,1.2203,1.3174,0.3277,-1.5359,,1.2203
625,0.8879,1.3431,0.3149,-1.5102,,0.8879
626,0.2506,1.356,0.2892,-1.4588,,0.2506
627,-1.0472,1.3688,0.302,-1.4202,,1.0472
628,-1.6798,1.3945,0.2892,-1.4202,,1.6798
629,-1.2626,1.3817,0.2635,-1.3945,,1.2626
630,-0.3832,1.4202,0.2635,-1.3688,,0.3832
631,0.5394,1.4202,0.2763,-1.3431,,0.5394
632,0.9916,1.4588,0.2506,-1.3302,,0.9916
633,0.775,1.4716,0.2378,-1.3174,,0.775
634,0.1687,1.4845,0.2249,-1.2917,,0.1687
635,-0.0108,1.4845,0.2249,-1.2917,,0.0108
636,0.0005,1.4973,0.1992,-1.2531,,0.0005
637,0.0951,1.4973,0.1992,-1.2274,,0.0951
638,0.2682,1.4973,0.1735,-1.2146,,0.2682
639,0.2532,1.5102,0.1735,-1.1632,,0.2532
640,0.1329,1.5102,0.135,-1.1503,,0.1329
641,0.003,1.523,0.1221,-1.1118,,0.003
642,0.0138,1.5102,0.1092,-1.0989,,0.0138
643,-0.0693,1.5359,0.0835,-1.0732,,0.0693
644,-0.1214,1.5487,0.0578,-1.0218,,0.1214
645,-0.1124,1.5487,0.0321,-1.0089,,0.1124
646,-0.0929,1.5616,0.0064,-0.9704,,0.0929
647,-0.0567,1.5873,-0.0321,-0.9575,,0.0567
648,-0.016,1.6259,-0.0707,-0.9447,,0.016
649,-0.0012,1.6644,-0.0964,-0.8933,,0.0012
650,0.0079,1.6901,-0.135,-0.8804,,0.0079
651,-0.0559,1.7158,-0.1607,-0.8161,,0.0559
652,-0.143,1.7544,-0.1992,-0.8418,,0.143
653,-0.1518,1.7801,-0.2249,-0.8161,,0.1518
654,-0.1488,1.8186,-0.2378,-0.7904,,0.1488
655,-0.1474,1.8315,-0.2635,-0.7776,,0.1474
656,-0.1164,1.8829,-0.302,-0.7647,,0.1164
657,-0.036,1.9215,-0.3277,-0.7262,,0.036
658,-0.0208,1.9472,-0.3663,-0.7262,,0.0208
659,-0.0262,1.9857,-0.3792,-0.6748,,0.0262
660,-0.072,2.0371,-0.392,-0.6748,,0.072
661,-0.1031,2.0628,-0.4177,-0.6619,,0.1031
662,-0.0724,2.1143,-0.4434,-0.6234,,0.0724
663,-0.0196,2.1528,-0.482,-0.6105,,0.0196
664,-0.0153,2.2171,-0.5077,-0.5591,,0.0153
665,0.0146,2.2685,-0.5462,-0.5462,,0.0146
666,0.0795,2.2942,-0.5719,-0.5205,,0.0795
667,0.2035,2.307,-0.6105,-0.4948,,0.2035
668,0.2301,2.3199,-0.6234,-0.4563,,0.2301
669,0.1556,2.2942,-0.6491,-0.4306,,0.1556
670,-0.0142,2.2942,-0.6619,-0.392,,0.0142
671,-0.1979,2.2428,-0.6876,-0.3534,,0.1979
672,-0.2396,2.2171,-0.7262,-0.3534,,0.2396
673,-0.3605,2.2299,-0.7647,-0.3406,,0.3605
674,-0.3288,2.1785,-0.7904,-0.3277,,0.3288
675,-0.1924,2.1657,-0.8161,-0.3149,,0.1924
676,-0.0859,2.1014,-0.8161,-0.3149,,0.0859
677,-0.0085,2.0243,-0.8161,-0.302,,0.0085
678,0.0347,1.96,-0.8033,-0.3149,,0.0347
679,0.0768,1.8572,-0.8033,-0.3149,,0.0768
680,0.0792,1.8058,-0.8033,-0.3149,,0.0792
681,0.0983,1.7544,-0.8033,-0.3277,,0.0983
682,0.1164,1.7158,-0.7904,-0.3277,,0.1164
683,0.098,1.6901,-0.7904,-0.3277,,0.098
684,0.0563,1.6644,-0.7904,-0.2892,,0.0563
685,0.001,1.6259,-0.7904,-0.2892,,0.001
686,0.0233,1.613,-0.7776,-0.2378,,0.0233
687,-0.0814,1.6002,-0.7776,-0.2378,,0.0814
688,-0.1715,1.5873,-0.7647,-0.2121,,0.1715
689,-0.1353,1.523,-0.7519,-0.2121,,0.1353
690,-0.0902,1.4716,-0.7133,-0.1992,,0.0902
691,-0.082,1.4331,-0.7005,-0.1992,,0.082
692,-0.088,1.4074,-0.6619,-0.1992,,0.088
693,-0.0086,1.356,-0.6234,-0.1992,,0.0086
694,0.0609,1.3174,-0.5976,-0.1992,,0.0609
695,0.11,1.2788,-0.5591,-0.2249,,0.11
696,0.1753,1.2531,-0.5205,-0.2378,,0.1753
697,0.1871,1.2017,-0.482,-0.2635,,0.1871
698,0.098,1.1632,-0.4434,-0.302,,0.098
699,-0.0296,1.1375,-0.392,-0.3277,,0.0296
700,-0.0111,1.1118,-0.3406,-0.3663,,0.0111
701,0.0159,1.0475,-0.3149,-0.4177,,0.0159
702,-0.0393,1.0346,-0.2635,-0.4691,,0.0393
703,-0.0554,1.0089,-0.2506,-0.482,,0.0554
704,-0.0037,0.9704,-0.1992,-0.5205,,0.0037
705,0.0373,0.9318,-0.1735,-0.5976,,0.0373
706,-0.0021,0.9061,-0.1221,-0.6619,,0.0021
707,-0.0113,0.8676,-0.0835,-0.6748,,0.0113
708,0.0957,0.8547,-0.0578,-0.7133,,0.0957
709,-0.1074,0.829,-0.0321,-0.7904,,0.1074
710,-0.2328,0.8161,0.0064,-0.8418,,0.2328
711,-0.185,0.7776,0.0321,-0.8804,,0.185
712,-0.2233,0.739,0.045,-0.919,,0.2233
713,-0.298,0.7005,0.045,-0.9575,,0.298
714,-0.0331,0.6234,0.0835,-1.0089,,0.0331
715,0.0787,0.5719,0.1092,-1.086,,0.0787
716,0.1417,0.4948,0.135,-1.1375,,0.1417
717,0.1048,0.4306,0.1478,-1.2146,,0.1048
718,0.0192,0.3534,0.1735,-1.2788,,0.0192
719,0.0506,0.2506,0.1992,-1.3688,,0.0506
720,0.0212,0.1607,0.2635,-1.4202,,0.0212
721,-0.0516,0.0707,0.2892,-1.4588,,0.0516
722,0.0267,-0.0321,0.3406,-1.5873,,0.0267
723,0.1022,-0.135,0.4049,-1.6644,,0.1022
724,0.0684,-0.2121,0.4563,-1.7929,,0.0684
725,-0.0105,-0.2892,0.5077,-1.8829,,0.0105
726,-0.0647,-0.3663,0.5591,-1.9986,,0.0647
727,-0.1272,-0.4563,0.5976,-2.1271,,0.1272
728,-0.0767,-0.5462,0.6234,-2.2685,,0.0767
729,-0.0779,-0.6362,0.6491,-2.397,,0.0779
730,-0.0982,-0.739,0.6748,-2.4741,,0.0982
731,-0.0771,-0.8418,0.7005,-2.5641,,0.0771
732,-0.0254,-0.9447,0.6876,-2.6541,,0.0254
733,0.0063,-1.0475,0.6491,-2.7183,,0.0063
734,-0.0503,-1.1632,0.6491,-2.7955,,0.0503
735,-0.1219,-1.2788,0.6362,-2.8083,,0.1219
736,-0.166,-1.4202,0.6105,-2.8469,,0.166
737,-0.1554,-1.5487,0.5848,-2.834,,0.1554
738,-0.1493,-1.6901,0.5719,-2.834,,0.1493
739,-0.0853,-1.8444,0.5591,-2.8212,,0.0853
740,-0.0093,-1.9729,0.5462,-2.7955,,0.0093
741,0.1146,-2.1143,0.5205,-2.7569,,0.1146
742,0.1649,-2.2556,0.5205,-2.7183,,0.1649
743,0.1257,-2.3585,0.5077,-2.6412,,0.1257
744,0.0964,-2.5127,0.5077,-2.5512,,0.0964
745,0.1059,-2.6541,0.5205,-2.4356,,0.1059
746,0.0356,-2.7697,0.5077,-2.3456,,0.0356
747,0.0098,-2.8854,0.5077,-2.2171,,0.0098
748,0.0435,-2.9882,0.4948,-2.0757,,0.0435
749,0.0311,-3.0782,0.482,-1.9729,,0.0311
750,-0.1014,-3.1682,0.482,-1.8572,,0.1014
751,-0.0607,-3.271,0.482,-1.6773,,0.0607
752,0.0233,-3.3353,0.4691,-1.5102,,0.0233
753,-0.0913,-3.3995,0.4691,-1.3302,,0.0913
754,-0.0387,-3.4509,0.4434,-1.1632,,0.0387
755,0.0291,-3.5023,0.4177,-0.9575,,0.0291
756,0.0547,-3.5023,0.392,-0.7647,,0.0547
757,0.027,-3.4766,0.3792,-0.5719,,0.027
758,0.039,-3.3995,0.3406,-0.4049,,0.039
759,0.019,-3.361,0.3406,-0.2249,,0.019
760,-0.0499,-3.2581,0.3277,-0.1478,,0.0499
761,-0.0031,-3.1296,0.3663,-0.0835,,0.0031
762,0.0638,-2.9497,0.3792,-0.0707,,0.0638
763,0.0778,-2.744,0.4306,-0.0707,,0.0778
764,0.0962,-2.5127,0.482,-0.1992,,0.0962
765,0.1033,-2.2556,0.5462,-0.3406,,0.1033
766,0.0955,-1.9729,0.6234,-0.5205,,0.0955
767,0.1906,-1.6387,0.6876,-0.7133,,0.1906
768,0.2419,-1.3174,0.7519,-0.9318,,0.2419
769,0.2123,-0.9961,0.8418,-1.1246,,0.2123
770,0.1258,-0.6748,0.8804,-1.2917,,0.1258
771,0.1275,-0.3534,0.9575,-1.4202,,0.1275
772,0.0311,-0.1092,1.086,-1.523,,0.0311
773,-0.0556,0.2378,1.176,-1.6259,,0.0556
774,-0.269,0.4049,1.266,-1.6901,,0.269
775,-0.5268,0.6234,1.3817,-1.7158,,0.5268
776,-0.4268,0.8418,1.4588,-1.7158,,0.4268
777,-0.2161,1.0603,1.5102,-1.6901,,0.2161
778,-0.0605,1.2788,1.523,-1.6387,,0.0605
779,0.0515,1.4588,1.523,-1.6002,,0.0515
780,0.1425,1.6387,1.523,-1.5487,,0.1425
781,0.159,1.8315,1.4973,-1.4973,,0.159
782,0.2031,1.9986,1.4588,-1.4331,,0.2031
783,0.2956,2.1785,1.3945,-1.4202,,0.2956
784,0.3173,2.3199,1.356,-1.4459,,0.3173
785,0.2337,2.4613,1.3045,-1.4973,,0.2337
786,0.173,2.5898,1.2403,-1.5616,,0.173
787,0.1506,2.7312,1.1503,-1.6644,,0.1506
788,0.0726,2.8597,1.0989,-1.7801,,0.0726
789,0.0642,2.9754,0.9961,-1.9729,,0.0642
790,-0.0503,3.0782,0.9061,-2.14,,0.0503
791,-0.1371,3.181,0.7904,-2.2942,,0.1371
792,-0.2371,3.271,0.6876,-2.5255,,0.2371
793,-0.2657,3.361,0.5591,-2.744,,0.2657
794,-0.2987,3.4509,0.4434,-2.9754,,0.2987
795,-0.2862,3.4895,0.3149,-3.2196,,0.2862
796,-0.1734,3.5409,0.1992,-3.4638,,0.1734
797,-0.1207,3.5538,0.0964,-3.6694,,0.1207
798,-0.0877,3.5538,0.0064,-3.8237,,0.0877
799,-0.0679,3.5666,-0.0707,-3.965,,0.0679
800,0.2482,3.5666,-0.1221,-4.0165,,0.2482
801,0.702,3.5538,-0.1864,-4.0165,,0.702
802,0.9076,3.5666,-0.2378,-3.9393,,0.9076
803,0.697,3.5795,-0.302,-3.8108,,0.697
804,0.3854,3.5409,-0.3534,-3.618,,0.3854
805,0.1955,3.5023,-0.4177,-3.3867,,0.1955
806,0.0105,3.4638,-0.4563,-3.1168,,0.0105
807,-0.2477,3.3995,-0.5205,-2.8597,,0.2477
808,-0.3828,3.3738,-0.5462,-2.6798,,0.3828
809,-0.4033,3.2967,-0.5848,-2.5255,,0.4033
810,-0.2057,3.2324,-0.6234,-2.4099,,0.2057
811,0.0131,3.1296,-0.6234,-2.307,,0.0131
812,0.0333,3.0525,-0.5848,-2.2556,,0.0333
813,0.0243,2.9497,-0.5462,-2.1785,,0.0243
814,-0.0089,2.8212,-0.482,-2.1657,,0.0089
815,-0.0508,2.7055,-0.4306,-2.14,,0.0508
816,-0.0789,2.5898,-0.3406,-2.1271,,0.0789
817,-0.1296,2.4613,-0.2763,-2.0757,,0.1296
818,-0.1986,2.3842,-0.2121,-2.0371,,0.1986
819,-0.1877,2.2556,-0.1607,-1.96,,0.1877
820,-0.0247,2.14,-0.1092,-1.9215,,0.0247
821,0.0481,2.0371,-0.0578,-1.8058,,0.0481
822,0.1573,1.9343,-0.0064,-1.7158,,0.1573
823,0.1973,1.8315,0.0193,-1.6259,,0.1973
824,0.241,1.7544,0.0707,-1.4973,,0.241
825,0.1449,1.6644,0.0964,-1.4459,,0.1449
826,-0.0058,1.5873,0.1092,-1.3431,,0.0058
827,-0.0801,1.523,0.1221,-1.2788,,0.0801
828,-0.1617,1.4459,0.1478,-1.2146,,0.1617
829,-0.0921,1.3945,0.1607,-1.1503,,0.0921
830,0.1079,1.3045,0.1864,-1.1118,,0.1079
831,0.3206,1.266,0.2249,-1.0346,,0.3206
832,0.2714,1.2017,0.2249,-0.9961,,0.2714
833,-0.0789,1.1632,0.2506,-0.919,,0.0789
834,-0.3934,1.1375,0.2763,-0.8933,,0.3934
835,-0.491,1.0989,0.2892,-0.8676,,0.491
836,-0.4093,1.0603,0.302,-0.8161,,0.4093
837,-0.187,1.0475,0.3277,-0.8161,,0.187
838,0.1588,1.0089,0.3534,-0.7519,,0.1588
839,0.3426,0.9961,0.3792,-0.7776,,0.3426
840,0.2559,0.9961,0.3792,-0.7776,,0.2559
841,-0.187,0.9704,0.392,-0.7904,,0.187
842,-0.3049,0.9575,0.4177,-0.7776,,0.3049
843,-0.2253,0.9575,0.4306,-0.7904,,0.2253
844,-0.2887,0.9447,0.4434,-0.7904,,0.2887
845,-0.1424,0.9318,0.4691,-0.8033,,0.1424
846,0.0119,0.9318,0.4948,-0.8547,,0.0119
847,0.3509,0.9318,0.4948,-0.8676,,0.3509
848,0.5217,0.9447,0.5077,-0.8804,,0.5217
849,0.4008,0.9704,0.4948,-0.9318,,0.4008
850,0.2907,0.9832,0.5077,-0.9447,,0.2907
851,0.199,1.0089,0.5205,-0.9832,,0.199
852,0.0984,1.0218,0.5205,-1.0089,,0.0984
853,-0.0847,1.0475,0.5334,-1.0218,,0.0847
854,-0.1528,1.0732,0.5334,-1.0475,,0.1528
855,-0.4184,1.1118,0.5334,-1.0218,,0.4184
856,-0.4865,1.1375,0.5334,-1.0603,,0.4865
857,-0.4597,1.1375,0.5205,-1.0475,,0.4597
858,-0.5163,1.1889,0.4948,-1.0346,,0.5163
859,-0.5203,1.176,0.4691,-0.9575,,0.5203
860,-0.1863,1.1632,0.4563,-0.9447,,0.1863
861,0.2522,1.1889,0.4306,-0.8933,,0.2522
862,0.3914,1.176,0.392,-0.8804,,0.3914
863,0.3729,1.1889,0.3534,-0.829,,0.3729
864,0.6319,1.1632,0.2892,-0.739,,0.6319
865,0.7677,1.1632,0.2378,-0.6748,,0.7677
866,0.6314,1.1503,0.1735,-0.5976,,0.6314
867,0.4326,1.1503,0.1221,-0.5462,,0.4326
868,0.2444,1.1375,0.0707,-0.4691,,0.2444
869,0.1211,1.1375,0.0193,-0.392,,0.1211
870,0.077,1.1375,-0.045,-0.3277,,0.077
871,0.0059,1.1246,-0.1221,-0.2249,,0.0059
872,-0.0301,1.1118,-0.1864,-0.1864,,0.0301
873,-0.0599,1.0603,-0.2506,-0.1735,,0.0599
874,-0.007,1.0346,-0.3277,-0.0964,,0.007
875,0.0133,1.0089,-0.3792,-0.0578,,0.0133
876,0.0913,0.9704,-0.4177,-0.0064,,0.0913
877,0.0965,0.9318,-0.4691,0.0578,,0.0965
878,0.1008,0.9061,-0.5077,0.1221,,0.1008
879,0.105,0.8676,-0.5334,0.1221,,0.105
880,-0.0794,0.829,-0.5591,0.1992,,0.0794
881,-0.2148,0.7904,-0.5848,0.2249,,0.2148
882,-0.1222,0.739,-0.5848,0.2506,,0.1222
883,-0.1237,0.7005,-0.6105,0.2763,,0.1237
884,-0.0907,0.6491,-0.5976,0.3277,,0.0907
885,-0.0338,0.5848,-0.6105,0.3663,,0.0338
886,-0.0565,0.5334,-0.6105,0.4434,,0.0565
887,-0.0904,0.5205,-0.6234,0.4049,,0.0904
888,-0.0591,0.482,-0.6105,0.4177,,0.0591
889,0.0163,0.4434,-0.5976,0.4177,,0.0163
890,-0.0839,0.4177,-0.5848,0.4306,,0.0839
891,0.04,0.3663,-0.5334,0.4948,,0.04
892,0.173,0.3534,-0.4948,0.4563,,0.173
893,0.1347,0.302,-0.482,0.4563,,0.1347
894,-0.1006,0.2635,-0.4434,0.4306,,0.1006
895,-0.2415,0.2506,-0.4177,0.4177,,0.2415
896,-0.1649,0.2378,-0.3792,0.4177,,0.1649
897,-0.1446,0.2121,-0.3406,0.4049,,0.1446
898,-0.0231,0.1607,-0.302,0.3406,,0.0231
899,0.0877,0.135,-0.2506,0.3792,,0.0877
900,0.2015,0.0964,-0.2249,0.3406,,0.2015
901,0.4231,0.0707,-0.1864,0.3277,,0.4231
902,0.4305,0.045,-0.1478,0.2892,,0.4305
903,0.4414,0.0578,-0.1221,0.2506,,0.4414
904,0.2924,0.045,-0.0964,0.2121,,0.2924
905,0.1112,0.0578,-0.0964,0.1607,,0.1112
906,0.1411,0.0835,-0.0707,0.1478,,0.1411
907,0.0939,0.0964,-0.0578,0.0964,,0.0939
908,0.1158,0.1221,-0.045,0.0578,,0.1158
909,-0.158,0.135,-0.0321,-0.0064,,0.158
910,-0.2716,0.1735,-0.0321,-0.0964,,0.2716
911,-0.2379,0.2249,-0.0321,-0.1478,,0.2379
912,-0.2153,0.2635,-0.045,-0.2249,,0.2153
913,-0.2334,0.3149,-0.0321,-0.3149,,0.2334
914,-0.2151,0.3663,-0.0578,-0.392,,0.2151
915,-0.1437,0.4177,-0.0835,-0.4948,,0.1437
916,-0.107,0.482,-0.1092,-0.5719,,0.107
917,-0.1215,0.5334,-0.1221,-0.6876,,0.1215
918,-0.1537,0.6234,-0.1607,-0.7647,,0.1537
919,-0.0728,0.7005,-0.2121,-0.8547,,0.0728
920,-0.034,0.7776,-0.2378,-0.9447,,0.034
921,0.1108,0.8547,-0.302,-1.0346,,0.1108
922,0.2807,0.9447,-0.3406,-1.1118,,0.2807
923,0.3108,1.0218,-0.392,-1.176,,0.3108
924,0.2037,1.0989,-0.4434,-1.2788,,0.2037
925,0.0252,1.1889,-0.4948,-1.3688,,0.0252
926,-0.0489,1.3045,-0.5334,-1.4459,,0.0489
927,-0.0928,1.3945,-0.5848,-1.4973,,0.0928
928,-0.0574,1.523,-0.6234,-1.5873,,0.0574
929,0.0387,1.6002,-0.6619,-1.6901,,0.0387
930,-0.0042,1.703,-0.6748,-1.7287,,0.0042
931,0.0346,1.7801,-0.7005,-1.8058,,0.0346
932,-0.1096,1.8958,-0.7133,-1.8186,,0.1096
933,-0.1291,1.9857,-0.7262,-1.9215,,0.1291
934,0.14,2.0886,-0.7262,-1.9729,,0.14
935,0.3546,2.1785,-0.739,-2.0114,,0.3546
936,0.2479,2.2813,-0.739,-2.0243,,0.2479
937,0.171,2.3585,-0.739,-2.0757,,0.171
938,0.1108,2.4484,-0.7262,-2.05,,0.1108
939,0.2717,2.5384,-0.7133,-2.05,,0.2717
940,-0.2192,2.6155,-0.6748,-2.05,,0.2192
941,-0.5271,2.6926,-0.6491,-2.05,,0.5271
942,-0.5511,2.7569,-0.5976,-2.0371,,0.5511
943,-0.5756,2.8212,-0.5462,-2.05,,0.5756
944,-0.7327,2.8854,-0.482,-2.0371,,0.7327
945,-0.2222,2.9111,-0.4306,-1.9729,,0.2222
946,0.073,2.924,-0.3792,-1.9215,,0.073
947,0.2617,2.924,-0.3149,-1.8829,,0.2617
948,0.414,2.924,-0.2763,-1.7929,,0.414
949,0.3775,2.8983,-0.2249,-1.6901,,0.3775
950,0.3037,2.8597,-0.1735,-1.5744,,0.3037
951,0.025,2.8083,-0.135,-1.4331,,0.025
952,-0.1966,2.7312,-0.1092,-1.3174,,0.1966
953,-0.3598,2.6541,-0.0578,-1.1889,,0.3598
954,-0.1186,2.5641,-0.0193,-1.0346,,0.1186
955,0.1559,2.4741,0.0064,-0.8933,,0.1559
956,0.391,2.3585,0.045,-0.7647,,0.391
957,0.6675,2.2299,0.0964,-0.6105,,0.6675
958,0.7765,2.1014,0.1221,-0.5205,,0.7765
959,0.7488,1.9343,0.1607,-0.4049,,0.7488
960,0.6346,1.7415,0.1992,-0.2763,,0.6346
961,0.17,1.5873,0.2378,-0.1864,,0.17
962,-0.1189,1.4074,0.2506,-0.1092,,0.1189
963,-0.2993,1.2146,0.3277,-0.0064,,0.2993
964,-0.575,0.9832,0.3534,0.0835,,0.575
965,-0.2595,0.7519,0.4177,0.1221,,0.2595
966,-0.3121,0.4948,0.4434,0.135,,0.3121
967,-0.3785,0.2249,0.5077,0.1607,,0.3785
968,-0.3631,-0.045,0.5591,0.1478,,0.3631
969,-1.1017,-0.3406,0.6105,0.0707,,1.1017
970,-2.2832,-0.6362,0.6748,-0.0064,,2.2832
971,-2.4001,-0.9575,0.739,-0.1735,,2.4001
972,-2.4001,-1.2146,0.7904,-0.3149,,2.4001
973,-1.5786,-1.4588,0.8418,-0.5462,,1.5786
974,-0.1401,-1.7415,0.8933,-0.8161,,0.1401
975,-0.1704,-1.9986,0.9061,-1.1246,,0.1704
976,-0.227,-2.2428,0.919,-1.4459,,0.227
977,-1.2267,-2.5127,0.9447,-1.7801,,1.2267
978,-1.9401,-2.6669,0.919,-2.0886,,1.9401
979,0.1231,-2.9368,0.8933,-2.4099,,0.1231
980,2.4,-3.2839,0.8547,-2.7183,,2.4
981,2.4,-3.6823,0.8033,-3.0397,,2.4
982,2.4,-3.9265,0.6619,-3.2324,,2.4
983,2.4,-4.1064,0.5462,-3.3224,,2.4
984,2.4,-4.2735,0.4691,-3.3481,,2.4
985,2.1478,-4.3635,0.4177,-3.2196,,2.1478
986,1.4729,-4.4277,0.392,-2.9625,,1.4729
987,0.7408,-4.3892,0.4049,-2.6284,,0.7408
988,0.5982,-4.2735,0.4177,-2.2171,,0.5982
989,0.0702,-4.145,0.4306,-1.8444,,0.0702
990,-0.7855,-3.9907,0.5077,-1.4845,,0.7855
991,-2.4001,-3.798,0.5719,-1.1889,,2.4001
992,-2.4001,-3.6566,0.6748,-0.9704,,2.4001
993,-2.4001,-3.4895,0.7647,-0.8547,,2.4001
994,-2.4001,-3.361,0.8676,-0.8033,,2.4001
995,-1.3755,-3.2067,0.9318,-0.8418,,1.3755
996,-0.2517,-3.0654,0.9961,-0.9061,,0.2517
997,0.7329,-2.9111,1.0346,-1.0603,,0.7329
998,1.2229,-2.744,1.0346,-1.1503,,1.2229
999,0.2755,-2.6027,1.0475,-1.2788,,0.2755
1000,-0.1586,-2.4741,1.0089,-1.3945,,0.1586
1001,-0.0677,-2.3199,0.9832,-1.5359,,0.0677
1002,0.849,-2.2171,0.9318,-1.6644,,0.849
1003,1.4533,-2.05,0.8933,-1.7929,,1.4533
1004,0.9538,-1.9343,0.8804,-1.8701,,0.9538
1005,-0.3822,-1.8058,0.8547,-1.9343,,0.3822
1006,-1.363,-1.6516,0.8418,-2.0243,,1.363
1007,-1.6761,-1.4973,0.829,-2.0371,,1.6761
1008,-0.3088,-1.3431,0.829,-2.0628,,0.3088
1009,2.0127,-1.1632,0.8161,-2.1014,,2.0127
1010,2.4,-1.0089,0.8033,-2.0757,,2.4
1011,2.4,-0.8161,0.8033,-2.0757,,2.4
1012,1.3674,-0.6362,0.7776,-2.0757,,1.3674
1013,-0.9926,-0.4306,0.739,-2.1014,,0.9926
1014,-2.4001,-0.2506,0.7133,-2.1143,,2.4001
1015,-2.4001,-0.0321,0.7005,-2.2042,,2.4001
1016,-2.4001,0.1735,0.6748,-2.2685,,2.4001
1017,-0.4507,0.3792,0.6362,-2.3456,,0.4507
1018,2.4,0.6105,0.6234,-2.4356,,2.4
1019,2.4,0.8418,0.6105,-2.5255,,2.4
1020,2.2008,1.0218,0.5976,-2.6027,,2.2008
1021,0.9147,1.2017,0.5719,-2.6541,,0.9147
1022,0.195,1.3302,0.5976,-2.6798,,0.195
1023,-0.7191,1.4074,0.6105,-2.6798,,0.7191
1024,-0.394,1.4845,0.5848,-2.6669,,0.394
1025,0.7839,1.523,0.5976,-2.6669,,0.7839
1026,1.7118,1.5616,0.5848,-2.6155,,1.7118
1027,2.072,1.5359,0.5719,-2.6027,,2.072
1028,1.5598,1.613,0.5462,-2.5898,,1.5598
1029,-0.1844,1.5616,0.5719,-2.577,,0.1844
1030,-1.8206,1.523,0.5591,-2.5384,,1.8206
1031,-2.2458,1.5102,0.5719,-2.5512,,2.2458
1032,-1.3231,1.4716,0.5976,-2.5512,,1.3231
1033,0.116,1.4459,0.6105,-2.577,,0.116
1034,1.1854,1.4202,0.6234,-2.5898,,1.1854
1035,1.6717,1.4074,0.6234,-2.5898,,1.6717
1036,-1.1181,1.3945,0.6491,-2.577,,1.1181
1037,-2.4001,1.4074,0.6491,-2.577,,2.4001
1038,-2.4001,1.4074,0.6491,-2.5512,,2.4001
1039,-2.4001,1.3945,0.6619,-2.5127,,2.4001
1040,-1.0563,1.3945,0.6491,-2.487,,1.0563
1041,2.4,1.4202,0.6491,-2.487,,2.4
1042,2.4,1.4459,0.6491,-2.4484,,2.4
1043,2.4,1.4716,0.6234,-2.397,,2.4
1044,2.4,1.4973,0.5976,-2.3585,,2.4
1045,0.6097,1.4973,0.5976,-2.307,,0.6097
1046,-0.4041,1.5102,0.5848,-2.2556,,0.4041
1047,0.1671,1.523,0.5719,-2.2299,,0.1671
1048,1.2718,1.523,0.5591,-2.1657,,1.2718
1049,0.9462,1.5359,0.5462,-2.1528,,0.9462
1050,0.5184,1.523,0.5334,-2.0886,,0.5184
1051,-0.0943,1.5487,0.5334,-2.05,,0.0943
1052,-0.7502,1.5616,0.5205,-1.9986,,0.7502
1053,-0.589,1.5616,0.5205,-1.96,,0.589
1054,-0.1877,1.5359,0.5077,-1.9343,,0.1877
1055,0.0318,1.5359,0.4948,-1.8701,,0.0318
1056,0.4123,1.523,0.482,-1.8701,,0.4123
1057,0.4483,1.523,0.482,-1.8572,,0.4483
1058,0.5055,1.523,0.4563,-1.8315,,0.5055
1059,0.1627,1.523,0.4306,-1.7929,,0.1627
1060,-0.1431,1.523,0.4177,-1.7801,,0.1431
1061,-0.5831,1.4845,0.4177,-1.7287,,0.5831
1062,-0.5613,1.4716,0.4049,-1.703,,0.5613
1063,-0.2913,1.4716,0.3792,-1.6644,,0.2913
1064,0.0453,1.4588,0.3792,-1.6387,,0.0453
1065,0.1623,1.4331,0.3406,-1.5873,,0.1623
1066,0.1775,1.4459,0.3406,-1.5616,,0.1775
1067,0.1722,1.4716,0.3149,-1.5359,,0.1722
1068,0.1211,1.4588,0.3149,-1.5102,,0.1211
1069,-0.1043,1.4202,0.3149,-1.4588,,0.1043
1070,-0.2869,1.3945,0.2892,-1.4331,,0.2869
1071,-0.318,1.4074,0.2635,-1.3945,,0.318
1072,-0.3289,1.3817,0.2635,-1.356,,0.3289
1073,-0.2557,1.3945,0.2378,-1.3302,,0.2557
1074,-0.1138,1.3817,0.1992,-1.3045,,0.1138
1075,-0.0338,1.3688,0.1864,-1.266,,0.0338
1076,0.0532,1.356,0.1607,-1.2274,,0.0532
1077,0.0127,1.3688,0.135,-1.176,,0.0127
1078,0.0048,1.3817,0.1092,-1.1375,,0.0048
1079,-0.0625,1.3688,0.0964,-1.1246,,0.0625
1080,-0.1937,1.3945,0.045,-1.0732,,0.1937
1081,-0.2966,1.3945,0.0321,-1.0089,,0.2966
1082,-0.2719,1.4202,0.0064,-0.9832,,0.2719
1083,-0.1378,1.4074,-0.0064,-0.9575,,0.1378
1084,-0.1004,1.3817,-0.0193,-0.8933,,0.1004
1085,-0.062,1.3688,-0.0321,-0.8547,,0.062
1086,-0.0096,1.356,-0.045,-0.8033,,0.0096
1087,0.0138,1.3302,-0.0578,-0.7776,,0.0138
1088,-0.0281,1.3302,-0.0964,-0.739,,0.0281
1089,-0.1529,1.3302,-0.135,-0.7262,,0.1529
1090,-0.1925,1.356,-0.1478,-0.6748,,0.1925
1091,-0.1656,1.3817,-0.1607,-0.6491,,0.1656
1092,-0.1147,1.4331,-0.1735,-0.6491,,0.1147
1093,-0.0538,1.4588,-0.1864,-0.6234,,0.0538
1094,-0.036,1.4973,-0.2121,-0.6234,,0.036
1095,-0.036,1.5359,-0.1992,-0.5848,,0.036
1096,-0.0067,1.5744,-0.2249,-0.5848,,0.0067
1097,-0.0215,1.613,-0.2506,-0.5334,,0.0215
1098,-0.0515,1.6259,-0.2635,-0.5334,,0.0515
1099,-0.0694,1.6644,-0.2892,-0.482,,0.0694
1100,-0.0603,1.6644,-0.302,-0.4563,,0.0603
1101,-0.0494,1.6901,-0.3149,-0.4177,,0.0494
1102,-0.0258,1.7287,-0.3277,-0.4306,,0.0258
1103,0.0053,1.7801,-0.3406,-0.4049,,0.0053
1104,0.018,1.8186,-0.3663,-0.392,,0.018
1105,-0.0042,1.8572,-0.392,-0.3534,,0.0042
1106,0.01,1.9215,-0.4049,-0.3792,,0.01
1107,0.0267,1.9857,-0.4177,-0.3663,,0.0267
1108,0.0935,2.0114,-0.4434,-0.3149,,0.0935
1109,0.1445,2.0371,-0.4434,-0.3277,,0.1445
1110,0.1463,2.0371,-0.4563,-0.2763,,0.1463
1111,0.0731,2.0371,-0.4563,-0.2506,,0.0731
1112,-0.0166,1.9986,-0.4691,-0.2249,,0.0166
1113,-0.0164,1.9857,-0.482,-0.2121,,0.0164
1114,0.0149,1.9729,-0.4948,-0.1864,,0.0149
1115,0.0049,1.9215,-0.5077,-0.1607,,0.0049
1116,-0.0386,1.9215,-0.5334,-0.1478,,0.0386
1117,-0.0724,1.9086,-0.5334,-0.135,,0.0724
1118,-0.0913,1.9086,-0.5334,-0.1221,,0.0913
1119,-0.1771,1.9086,-0.5719,-0.1221,,0.1771
1120,-0.1528,1.9086,-0.5719,-0.0707,,0.1528
1121,-0.0621,1.9086,-0.5976,-0.1092,,0.0621
1122,0.0029,1.9215,-0.5976,-0.0964,,0.0029
1123,0.0158,1.9086,-0.6105,-0.1092,,0.0158
1124,0.0505,1.8829,-0.6105,-0.1092,,0.0505
1125,0.1264,1.8572,-0.6234,-0.0964,,0.1264
1126,0.18,1.8186,-0.6234,-0.1221,,0.18
1127,0.1865,1.7672,-0.6105,-0.1221,,0.1865
1128,0.0871,1.7672,-0.5976,-0.135,,0.0871
1129,0.0056,1.7287,-0.6105,-0.1607,,0.0056
1130,-0.0535,1.6773,-0.5719,-0.1607,,0.0535
1131,-0.1822,1.6259,-0.5719,-0.1607,,0.1822
1132,-0.1658,1.5744,-0.5591,-0.2121,,0.1658
1133,-0.1044,1.5102,-0.5462,-0.2378,,0.1044
1134,-0.0814,1.4331,-0.5462,-0.2763,,0.0814
1135,-0.0277,1.356,-0.5334,-0.2635,,0.0277
1136,0.0223,1.2917,-0.5591,-0.2892,,0.0223
1137,0.0607,1.2274,-0.5591,-0.3277,,0.0607
1138,0.1349,1.176,-0.5848,-0.392,,0.1349
1139,0.0913,1.1375,-0.5848,-0.4306,,0.0913
1140,0.0118,1.0989,-0.5848,-0.4563,,0.0118
1141,-0.1013,1.0603,-0.5591,-0.5462,,0.1013
1142,-0.083,1.0089,-0.5591,-0.5719,,0.083
1143,-0.0946,0.9575,-0.5334,-0.6748,,0.0946
1144,-0.0543,0.8804,-0.5077,-0.7519,,0.0543
1145,-0.0746,0.8033,-0.4948,-0.7904,,0.0746
1146,-0.1387,0.7133,-0.482,-0.8418,,0.1387
1147,-0.1938,0.6362,-0.482,-0.8804,,0.1938
1148,0.018,0.5462,-0.4691,-0.9447,,0.018
1149,0.1792,0.482,-0.4691,-1.0089,,0.1792
1150,0.281,0.4177,-0.4691,-1.0475,,0.281
1151,0.1446,0.3277,-0.4563,-1.0989,,0.1446
1152,0.0049,0.2249,-0.4434,-1.1375,,0.0049
1153,-0.1412,0.1092,-0.4177,-1.2146,,0.1412
1154,-0.2544,-0.0064,-0.3792,-1.266,,0.2544
1155,-0.3308,-0.1092,-0.3406,-1.2788,,0.3308
1156,-0.2698,-0.2249,-0.302,-1.3431,,0.2698
1157,-0.1489,-0.3277,-0.2249,-1.356,,0.1489
1158,-0.0204,-0.4177,-0.1735,-1.4331,,0.0204
1159,0.1035,-0.5205,-0.0964,-1.4331,,0.1035
1160,0.1417,-0.6234,0.0064,-1.4459,,0.1417
1161,0.1425,-0.7133,0.0964,-1.4845,,0.1425
1162,0.1676,-0.829,0.1992,-1.4716,,0.1676
1163,0.1203,-0.9061,0.302,-1.4973,,0.1203
1164,0.0285,-0.9704,0.4049,-1.5873,,0.0285
1165,0.0253,-1.0218,0.5077,-1.6516,,0.0253
1166,-0.0852,-1.0989,0.5976,-1.7544,,0.0852
1167,-0.1477,-1.1503,0.6876,-1.8572,,0.1477
1168,-0.0149,-1.2017,0.7904,-1.9986,,0.0149
1169,0.0038,-1.2403,0.8676,-2.0757,,0.0038
1170,0.0063,-1.2917,0.9318,-2.1785,,0.0063
1171,-0.0573,-1.3302,0.9961,-2.2556,,0.0573
1172,-0.0664,-1.3688,1.0603,-2.3328,,0.0664
1173,-0.0398,-1.4074,1.0732,-2.4227,,0.0398
1174,-0.0335,-1.4202,1.086,-2.4741,,0.0335
1175,0.0311,-1.4459,1.086,-2.5127,,0.0311
1176,-0.0961,-1.4331,1.0603,-2.5384,,0.0961
1177,-0.2449,-1.4202,0.9961,-2.5641,,0.2449
1178,-0.3009,-1.3817,0.919,-2.5512,,0.3009
1179,-0.4299,-1.356,0.829,-2.5512,,0.4299
1180,-0.389,-1.3045,0.7262,-2.5384,,0.389
1181,-0.1913,-1.2531,0.6362,-2.5127,,0.1913
1182,-0.1229,-1.2146,0.5462,-2.4998,,0.1229
1183,-0.2504,-1.2531,0.4691,-2.4356,,0.2504
1184,-0.2317,-1.3045,0.392,-2.3585,,0.2317
1185,-0.2086,-1.4074,0.3534,-2.2556,,0.2086
1186,-0.299,-1.5487,0.3406,-2.14,,0.299
1187,-0.2912,-1.7158,0.3149,-2.0243,,0.2912
1188,-0.0829,-1.9086,0.2892,-1.9086,,0.0829
1189,0.0499,-2.1014,0.2763,-1.7801,,0.0499
1190,0.2955,-2.2813,0.2635,-1.6644,,0.2955
1191,0.6038,-2.4613,0.2506,-1.5359,,0.6038
1192,0.9099,-2.577,0.2506,-1.4202,,0.9099
1193,0.8882,-2.6926,0.2378,-1.3302,,0.8882
1194,0.6278,-2.7826,0.2121,-1.2274,,0.6278
1195,0.437,-2.8083,0.1992,-1.1375,,0.437
1196,0.3597,-2.8083,0.1607,-1.0989,,0.3597
1197,0.303,-2.7697,0.1607,-1.0603,,0.303
1198,0.1983,-2.6541,0.1607,-1.0475,,0.1983
1199,0.1269,-2.5255,0.1478,-1.0218,,0.1269
1200,0.1165,-2.3713,0.135,-1.0475,,0.1165
1201,0.1462,-2.1271,0.135,-1.1118,,0.1462
1202,0.0819,-1.8958,0.1607,-1.1503,,0.0819
1203,0.0105,-1.613,0.1735,-1.2403,,0.0105
1204,0.0279,-1.3174,0.1992,-1.2531,,0.0279
1205,0.0726,-1.0089,0.2506,-1.3174,,0.0726
1206,0.1209,-0.6876,0.3149,-1.3174,,0.1209
1207,0.1243,-0.4049,0.3792,-1.3688,,0.1243
1208,0.1611,-0.135,0.4948,-1.356,,0.1611
1209,0.2043,0.1221,0.5976,-1.356,,0.2043
1210,0.1315,0.3277,0.7133,-1.3302,,0.1315
1211,0.0299,0.5205,0.8418,-1.3302,,0.0299
1212,-0.0794,0.6748,0.9832,-1.3174,,0.0794
1213,-0.0796,0.8547,1.0989,-1.3045,,0.0796
1214,-0.094,0.9447,1.176,-1.2917,,0.094
1215,-0.0543,1.0346,1.2788,-1.2788,,0.0543
1216,-0.0732,1.1246,1.3431,-1.2531,,0.0732
1217,-0.2031,1.2017,1.3688,-1.2017,,0.2031
1218,-0.2577,1.266,1.356,-1.2146,,0.2577
1219,-0.1914,1.3174,1.3431,-1.2017,,0.1914
1220,-0.18,1.3817,1.3302,-1.2274,,0.18
1221,-0.2347,1.4202,1.2531,-1.266,,0.2347
1222,-0.2232,1.4845,1.2017,-1.2917,,0.2232
1223,-0.2341,1.5359,1.1246,-1.3174,,0.2341
1224,-0.2126,1.5873,1.0732,-1.356,,0.2126
1225,-0.2572,1.613,0.9832,-1.3431,,0.2572
1226,-0.2515,1.6387,0.919,-1.3688,,0.2515
1227,-0.2543,1.6516,0.8547,-1.3817,,0.2543
1228,-0.2199,1.703,0.7519,-1.4331,,0.2199
1229,-0.0423,1.7158,0.6619,-1.5744,,0.0423
1230,0.2597,1.7672,0.5591,-1.6773,,0.2597
1231,0.3596,1.8444,0.4563,-1.8315,,0.3596
1232,0.4107,1.9215,0.3406,-1.9857,,0.4107
1233,0.2199,2.0114,0.2763,-2.1271,,0.2199
1234,0.0426,2.0886,0.1864,-2.2556,,0.0426
1235,0.088,2.1657,0.135,-2.3713,,0.088
1236,0.3092,2.2299,0.0578,-2.4356,,0.3092
1237,0.5277,2.2942,0.0321,-2.4356,,0.5277
1238,0.4906,2.3456,0.0064,-2.4356,,0.4906
1239,0.3332,2.3842,-0.0578,-2.4099,,0.3332
1240,0.1534,2.4227,-0.0964,-2.3585,,0.1534
1241,0.0226,2.4741,-0.135,-2.3199,,0.0226
1242,-0.1065,2.4998,-0.1735,-2.3199,,0.1065
1243,-0.1617,2.5512,-0.2249,-2.3199,,0.1617
1244,-0.1346,2.577,-0.2635,-2.3199,,0.1346
1245,-0.1056,2.5898,-0.2892,-2.3328,,0.1056
1246,-0.0525,2.6027,-0.3149,-2.3842,,0.0525
1247,-0.0361,2.6027,-0.3149,-2.4099,,0.0361
1248,-0.013,2.6155,-0.3149,-2.4227,,0.013
1249,-0.0389,2.6155,-0.3149,-2.4484,,0.0389
1250,-0.043,2.6027,-0.302,-2.4484,,0.043
1251,0.0043,2.5898,-0.2892,-2.4484,,0.0043
1252,-0.0122,2.5898,-0.2763,-2.4741,,0.0122
1253,-0.0254,2.577,-0.2506,-2.4356,,0.0254
1254,-0.1466,2.5641,-0.2378,-2.4484,,0.1466
1255,-0.0609,2.5384,-0.2378,-2.3842,,0.0609
1256,0.0115,2.4998,-0.2121,-2.2942,,0.0115
1257,-0.079,2.487,-0.1864,-2.2428,,0.079
1258,-0.1367,2.487,-0.1607,-2.14,,0.1367
1259,-0.2462,2.4099,-0.1478,-2.0628,,0.2462
1260,-0.1718,2.3713,-0.135,-1.9472,,0.1718
1261,-0.1193,2.3199,-0.1221,-1.8572,,0.1193
1262,-0.0918,2.2685,-0.1092,-1.7672,,0.0918
1263,0.0112,2.2299,-0.0835,-1.6387,,0.0112
1264,-0.2326,2.1657,-0.0578,-1.523,,0.2326
1265,-0.3299,2.1271,-0.0321,-1.4202,,0.3299
1266,-0.1191,2.0628,-0.0193,-1.3174,,0.1191
1267,-0.0719,2.0243,0.0193,-1.2146,,0.0719
1268,0.0201,1.9857,0.0321,-1.1632,,0.0201
1269,0.1678,1.9729,0.0707,-1.0989,,0.1678
1270,0.2695,1.9343,0.0964,-1.0218,,0.2695
1271,0.3524,1.8958,0.135,-0.9575,,0.3524
1272,0.3624,1.8829,0.1607,-0.919,,0.3624
1273,0.1883,1.8701,0.1735,-0.9061,,0.1883
1274,-0.0127,1.8444,0.2249,-0.8933,,0.0127
1275,-0.1779,1.8444,0.2506,-0.8804,,0.1779
1276,-0.2331,1.8186,0.2763,-0.8933,,0.2331
1277,-0.1749,1.8315,0.3149,-0.8804,,0.1749
1278,-0.1052,1.8186,0.3277,-0.8804,,0.1052
1279,0.1087,1.8058,0.3534,-0.8676,,0.1087
1280,0.3261,1.7929,0.3792,-0.8676,,0.3261
1281,0.2829,1.7672,0.392,-0.8804,,0.2829
1282,0.0397,1.7415,0.4177,-0.8804,,0.0397
1283,0.0108,1.7544,0.4177,-0.8804,,0.0108
1284,-0.0814,1.7287,0.4177,-0.8933,,0.0814
1285,-0.12,1.7158,0.4434,-0.8933,,0.12
1286,-0.0401,1.6901,0.4434,-0.8933,,0.0401
1287,0.1035,1.6516,0.4434,-0.8933,,0.1035
1288,0.1002,1.6387,0.4563,-0.9061,,0.1002
1289,0.1385,1.6002,0.4691,-0.8804,,0.1385
1290,0.1079,1.5616,0.4563,-0.8933,,0.1079
1291,-0.0442,1.5359,0.4563,-0.8933,,0.0442
1292,0.0724,1.4973,0.4306,-0.8933,,0.0724
1293,0.2654,1.4716,0.4306,-0.8933,,0.2654
1294,0.5308,1.4331,0.4306,-0.8933,,0.5308
1295,0.3741,1.3945,0.4177,-0.829,,0.3741
1296,0.0499,1.356,0.392,-0.8418,,0.0499
1297,-0.1255,1.3302,0.4049,-0.829,,0.1255
1298,-0.213,1.3045,0.3663,-0.8418,,0.213
1299,-0.2707,1.2403,0.3534,-0.8161,,0.2707
1300,-0.1911,1.2146,0.3534,-0.8161,,0.1911
1301,-0.1177,1.1632,0.3149,-0.8033,,0.1177
1302,-0.0398,1.1118,0.3149,-0.7904,,0.0398
1303,-0.0512,1.0732,0.302,-0.7776,,0.0512
1304,-0.1083,1.0218,0.2763,-0.7647,,0.1083
1305,-0.151,0.9704,0.2635,-0.7647,,0.151
1306,-0.1789,0.9318,0.2249,-0.739,,0.1789
1307,-0.1502,0.8804,0.1864,-0.7262,,0.1502
1308,-0.0554,0.8547,0.1478,-0.739,,0.0554
1309,0.2555,0.7776,0.1221,-0.7005,,0.2555
1310,0.339,0.739,0.0964,-0.7005,,0.339
1311,0.4748,0.6748,0.0707,-0.6619,,0.4748
1312,0.483,0.6491,0.045,-0.6491,,0.483
1313,0.3537,0.6234,0.0321,-0.6362,,0.3537
1314,0.2481,0.5719,-0.0064,-0.5848,,0.2481
1315,0.1499,0.5334,-0.0321,-0.5334,,0.1499
1316,0.0082,0.4691,-0.045,-0.4948,,0.0082
1317,-0.1733,0.4177,-0.045,-0.4434,,0.1733
1318,-0.2931,0.3406,-0.0578,-0.4306,,0.2931
1319,-0.1768,0.302,-0.0578,-0.392,,0.1768
1320,-0.1877,0.2378,-0.0707,-0.3534,,0.1877
1321,-0.0871,0.1992,-0.1092,-0.3149,,0.0871
1322,-0.079,0.1735,-0.135,-0.2892,,0.079
1323,-0.0368,0.1478,-0.1478,-0.2506,,0.0368
1324,0.0365,0.1092,-0.1607,-0.2121,,0.0365
1325,0.1044,0.0707,-0.1735,-0.1735,,0.1044
1326,0.0635,0.0321,-0.1864,-0.1478,,0.0635
1327,0.016,-0.0064,-0.1864,-0.1478,,0.016
1328,-0.0688,-0.0064,-0.1992,-0.1221,,0.0688
1329,-0.0545,-0.0064,-0.1992,-0.1221,,0.0545
1330,-0.1277,-0.0321,-0.1864,-0.1092,,0.1277
1331,-0.1804,-0.0321,-0.1992,-0.0835,,0.1804
1332,-0.3903,-0.045,-0.1864,-0.0578,,0.3903
1333,-0.2983,-0.0707,-0.1735,-0.0321,,0.2983
1334,-0.3141,-0.045,-0.1735,-0.0835,,0.3141
1335,-0.1517,-0.0064,-0.1607,-0.1221,,0.1517
1336,0.0585,0.0193,-0.1478,-0.1864,,0.0585
1337,0.2399,0.045,-0.135,-0.2121,,0.2399
1338,0.3538,0.0578,-0.135,-0.2763,,0.3538
1339,0.3551,0.0964,-0.1221,-0.3277,,0.3551
1340,0.2246,0.135,-0.1221,-0.4049,,0.2246
1341,-0.3032,0.1607,-0.0964,-0.4563,,0.3032
1342,-0.7739,0.1992,-0.0835,-0.5334,,0.7739
1343,-0.5715,0.2506,-0.0835,-0.5976,,0.5715
1344,-0.3656,0.2763,-0.0835,-0.6748,,0.3656
1345,-0.0215,0.3277,-0.0835,-0.7647,,0.0215
1346,0.0655,0.392,-0.0835,-0.8418,,0.0655
1347,0.0499,0.4434,-0.0835,-0.9318,,0.0499
1348,0.0416,0.5205,-0.0964,-1.0346,,0.0416
1349,-0.0067,0.5848,-0.1092,-1.1375,,0.0067
1350,-0.0305,0.6619,-0.1221,-1.2403,,0.0305
1351,0.2246,0.7519,-0.135,-1.356,,0.2246
1352,0.5329,0.8547,-0.135,-1.5102,,0.5329
1353,0.7428,0.9447,-0.1735,-1.6901,,0.7428
1354,0.5759,1.0732,-0.2121,-1.8572,,0.5759
1355,-0.0772,1.2017,-0.2249,-2.0628,,0.0772
1356,-0.3273,1.356,-0.2378,-2.2556,,0.3273
1357,-0.472,1.4973,-0.2763,-2.4741,,0.472
1358,-0.5079,1.6773,-0.302,-2.7055,,0.5079
1359,-0.0957,1.8444,-0.3406,-2.924,,0.0957
1360,0.4104,2.0114,-0.3792,-3.1168,,0.4104
1361,0.6115,2.1914,-0.4049,-3.2453,,0.6115
1362,0.6678,2.3585,-0.4691,-3.3481,,0.6678
1363,0.4975,2.4998,-0.5077,-3.361,,0.4975
1364,0.4143,2.6155,-0.5719,-3.271,,0.4143
1365,-0.0115,2.7312,-0.5976,-3.1168,,0.0115
1366,-0.9298,2.8212,-0.6491,-2.8854,,0.9298
1367,-1.4663,2.8726,-0.7005,-2.5641,,1.4663
1368,-1.9708,2.8983,-0.7519,-2.2042,,1.9708
1369,-1.5873,2.9111,-0.7904,-1.8058,,1.5873
1370,-0.5018,2.9111,-0.8161,-1.4074,,0.5018
1371,0.7506,2.8597,-0.8161,-0.9961,,0.7506
1372,0.8886,2.7955,-0.8033,-0.6362,,0.8886
1373,0.4163,2.7183,-0.7647,-0.3406,,0.4163
1374,0.3184,2.5641,-0.7262,-0.0578,,0.3184
1375,0.518,2.4227,-0.6362,0.1735,,0.518
1376,1.0118,2.2685,-0.5591,0.3277,,1.0118
1377,-0.3985,2.1143,-0.4434,0.3792,,0.3985
1378,-0.6736,1.9472,-0.3149,0.3406,,0.6736
1379,-1.8178,1.7929,-0.1864,0.2763,,1.8178
1380,-1.6977,1.6644,-0.0321,0.1607,,1.6977
1381,-1.2899,1.5616,0.1092,-0.0193,,1.2899
1382,0.0198,1.4716,0.2249,-0.1864,,0.0198
1383,1.2764,1.4202,0.3277,-0.2892,,1.2764
1384,0.6993,1.2917,0.4306,-0.3277,,0.6993
1385,0.4116,1.1246,0.5205,-0.3277,,0.4116
1386,0.143,0.9575,0.6234,-0.2249,,0.143
1387,0.5945,0.7647,0.739,-0.1735,,0.5945
1388,0.5484,0.5591,0.8418,-0.1735,,0.5484
1389,1.1149,0.3277,0.9575,-0.2892,,1.1149
1390,1.2987,0.1092,1.0603,-0.4948,,1.2987
1391,0.6011,-0.0707,1.1632,-0.7776,,0.6011
1392,0.3876,-0.2506,1.2531,-1.1375,,0.3876
1393,0.3422,-0.4049,1.3431,-1.5102,,0.3422
1394,0.1922,-0.5334,1.3817,-1.8186,,0.1922
1395,0.3093,-0.6619,1.3945,-2.0886,,0.3093
1396,0.3517,-0.8033,1.356,-2.1914,,0.3517
1397,0.3117,-0.9447,1.3045,-2.2171,,0.3117
1398,0.2696,-1.086,1.2146,-2.1271,,0.2696
1399,-0.8102,-1.2403,1.0989,-1.9857,,0.8102
1400,-2.4001,-1.4074,0.9575,-1.7801,,2.4001
1401,-2.4001,-1.5873,0.829,-1.6387,,2.4001
1402,-2.4001,-1.703,0.7005,-1.5487,,2.4001
1403,-1.5534,-1.8315,0.6105,-1.4845,,1.5534
1404,2.3678,-1.9729,0.5462,-1.3817,,2.3678
1405,2.4,-2.1143,0.4948,-1.3688,,2.4
1406,2.4,-2.2171,0.4691,-1.3431,,2.4
1407,2.4,-2.2942,0.4434,-1.2788,,2.4
1408,2.2543,-2.3713,0.4306,-1.2403,,2.2543
1409,0.959,-2.4356,0.4177,-1.2403,,0.959
1410,0.3681,-2.487,0.392,-1.2017,,0.3681
1411,-1.0226,-2.4741,0.3792,-1.1889,,1.0226
1412,-1.1233,-2.4613,0.3277,-1.1889,,1.1233
1413,-0.9874,-2.3713,0.302,-1.1889,,0.9874
1414,-0.4788,-2.3456,0.2635,-1.2403,,0.4788
1415,0.3299,-2.2685,0.2378,-1.2917,,0.3299
1416,0.7843,-2.1914,0.2121,-1.3174,,0.7843
1417,0.7773,-2.0628,0.1864,-1.3945,,0.7773
1418,0.5538,-1.9472,0.1735,-1.4202,,0.5538
1419,0.0929,-1.8572,0.1992,-1.5359,,0.0929
1420,-0.1983,-1.7415,0.2249,-1.6259,,0.1983
1421,-0.3286,-1.613,0.2378,-1.7158,,0.3286
1422,-0.2706,-1.4845,0.2506,-1.8186,,0.2706
1423,-0.1591,-1.356,0.2763,-1.8829,,0.1591
1424,-0.134,-1.2274,0.2892,-1.9472,,0.134
1425,-0.1175,-1.0989,0.3277,-1.9729,,0.1175
1426,-0.2243,-0.9961,0.3406,-1.9986,,0.2243
1427,-0.3647,-0.919,0.3663,-1.9857,,0.3647
1428,-0.4543,-0.7904,0.3792,-1.9343,,0.4543
1429,-0.4654,-0.7519,0.392,-1.8958,,0.4654
1430,-0.3558,-0.6876,0.4049,-1.8572,,0.3558
1431,-0.3295,-0.6362,0.4049,-1.8315,,0.3295
1432,-0.3393,-0.5848,0.4049,-1.8058,,0.3393
1433,-0.2698,-0.5205,0.4177,-1.7929,,0.2698
1434,-0.2341,-0.482,0.4177,-1.7929,,0.2341
1435,-0.1614,-0.4177,0.4049,-1.8315,,0.1614
1436,-0.1558,-0.3663,0.4049,-1.8315,,0.1558
1437,-0.1504,-0.302,0.392,-1.8701,,0.1504
1438,-0.1529,-0.2121,0.3792,-1.8572,,0.1529
1439,-0.3077,-0.1478,0.3663,-1.9472,,0.3077
1440,-0.4124,-0.0835,0.3277,-1.9472,,0.4124
1441,-0.5022,-0.0064,0.3406,-1.9472,,0.5022
1442,-0.6451,0.0578,0.3149,-1.9343,,0.6451
1443,-0.6484,0.135,0.2892,-1.9086,,0.6484
1444,-0.3048,0.1992,0.302,-1.8958,,0.3048
1445,0.0416,0.2763,0.302,-1.8572,,0.0416
1446,0.3785,0.3663,0.2892,-1.8572,,0.3785
1447,0.5763,0.4177,0.2892,-1.8572,,0.5763
1448,0.7457,0.4691,0.2763,-1.8186,,0.7457
1449,0.0998,0.5462,0.2892,-1.8058,,0.0998
1450,-0.7722,0.5976,0.2763,-1.7672,,0.7722
1451,-1.5803,0.6491,0.2635,-1.7415,,1.5803
1452,-1.0026,0.6876,0.2763,-1.703,,1.0026
1453,0.2533,0.739,0.2892,-1.7158,,0.2533
1454,1.2291,0.7776,0.2763,-1.6901,,1.2291
1455,1.5303,0.8161,0.2635,-1.6644,,1.5303
1456,1.1468,0.8418,0.2635,-1.6516,,1.1468
1457,0.8909,0.8676,0.2763,-1.6259,,0.8909
1458,0.8289,0.919,0.2635,-1.613,,0.8289
1459,0.5027,0.9061,0.2763,-1.5744,,0.5027
1460,0.3571,0.919,0.2763,-1.5487,,0.3571
1461,0.2277,0.9318,0.2763,-1.5359,,0.2277
1462,0.0074,0.9447,0.2763,-1.5359,,0.0074
1463,-0.0972,0.9575,0.2763,-1.523,,0.0972
1464,-0.0557,0.9318,0.2763,-1.4845,,0.0557
1465,-0.0193,0.919,0.2763,-1.4845,,0.0193
1466,-0.0264,0.9061,0.2892,-1.4716,,0.0264
1467,-0.0492,0.919,0.2763,-1.4459,,0.0492
1468,-0.1003,0.9447,0.2763,-1.4588,,0.1003
1469,-0.109,0.9318,0.2763,-1.4588,,0.109
1470,-0.1213,0.9318,0.2892,-1.4331,,0.1213
1471,-0.1959,0.9318,0.2763,-1.4202,,0.1959
1472,-0.2855,0.9447,0.2763,-1.3945,,0.2855
1473,-0.385,0.9318,0.2763,-1.3945,,0.385
1474,-0.3711,0.919,0.2635,-1.356,,0.3711
1475,-0.3128,0.9318,0.2635,-1.3431,,0.3128
1476,-0.1975,0.9061,0.2635,-1.356,,0.1975
1477,-0.08,0.919,0.2506,-1.3688,,0.08
1478,0.0825,0.9318,0.2506,-1.356,,0.0825
1479,0.1716,0.919,0.2378,-1.3302,,0.1716
1480,0.2966,0.919,0.2378,-1.3174,,0.2966
1481,0.2938,0.919,0.2378,-1.2917,,0.2938
1482,0.1261,0.919,0.2249,-1.2917,,0.1261
1483,0.0169,0.9318,0.2121,-1.2788,,0.0169
1484,-0.1405,0.9447,0.1992,-1.3174,,0.1405
1485,-0.1595,0.9447,0.1864,-1.2788,,0.1595
1486,0.0572,0.9575,0.1864,-1.2917,,0.0572
1487,0.2825,0.9704,0.1607,-1.2917,,0.2825
1488,0.2866,0.9832,0.1607,-1.2788,,0.2866
1489,0.1709,0.9961,0.1478,-1.2274,,0.1709
1490,0.0312,1.0089,0.135,-1.2274,,0.0312
1491,-0.6045,1.0218,0.135,-1.2274,,0.6045
1492,-0.5242,1.0346,0.1092,-1.2274,,0.5242
1493,-0.2969,1.0475,0.0964,-1.2274,,0.2969
1494,0.0094,1.0989,0.0707,-1.2146,,0.0094
1495,0.2779,1.1246,0.045,-1.1889,,0.2779
1496,0.4532,1.1503,0.0321,-1.1889,,0.4532
1497,0.4141,1.176,0.0321,-1.1889,,0.4141
1498,0.173,1.2531,-0.0064,-1.1503,,0.173
1499,-0.0256,1.2403,-0.0064,-1.1246,,0.0256
1500,-0.0779,1.2917,-0.0193,-1.1246,,0.0779
1501,-0.2971,1.3431,-0.045,-1.1118,,0.2971
1502,-0.2572,1.3817,-0.0707,-1.0989,,0.2572
1503,0.0027,1.4331,-0.0835,-1.0732,,0.0027
1504,0.1573,1.4716,-0.0964,-1.0475,,0.1573
1505,0.1936,1.5359,-0.1221,-1.0475,,0.1936
1506,0.1851,1.5744,-0.1478,-1.0218,,0.1851
1507,0.1301,1.6259,-0.1607,-1.0089,,0.1301
1508,-0.0612,1.6901,-0.1735,-0.9832,,0.0612
1509,-0.1608,1.7287,-0.2249,-0.9575,,0.1608
1510,-0.1533,1.7801,-0.2506,-0.9575,,0.1533
1511,-0.1296,1.8186,-0.2635,-0.9575,,0.1296
1512,-0.1133,1.8572,-0.2892,-0.9318,,0.1133
1513,-0.0896,1.9215,-0.302,-0.919,,0.0896
1514,-0.1077,1.96,-0.3277,-0.9318,,0.1077
1515,-0.1343,1.9986,-0.3663,-0.9061,,0.1343
1516,-0.128,2.05,-0.392,-0.8933,,0.128
1517,-0.0921,2.1014,-0.4306,-0.8804,,0.0921
1518,-0.0751,2.1271,-0.4563,-0.8676,,0.0751
1519,-0.0439,2.1657,-0.482,-0.8418,,0.0439
1520,-0.0174,2.2042,-0.4948,-0.829,,0.0174
1521,-0.0004,2.2171,-0.5205,-0.8033,,0.0004
1522,0.0628,2.2299,-0.5334,-0.7904,,0.0628
1523,0.0892,2.2299,-0.5462,-0.7647,,0.0892
1524,0.1241,2.2299,-0.5719,-0.739,,0.1241
1525,0.1255,2.2299,-0.5848,-0.6748,,0.1255
1526,0.1336,2.2171,-0.5976,-0.6491,,0.1336
1527,0.0617,2.2042,-0.5976,-0.6234,,0.0617
1528,-0.01,2.2299,-0.5976,-0.6105,,0.01
1529,-0.0307,2.1528,-0.6105,-0.5976,,0.0307
1530,-0.0221,2.14,-0.6234,-0.5719,,0.0221
1531,0.0182,2.1271,-0.6234,-0.5719,,0.0182
1532,0.0038,2.1143,-0.6234,-0.5591,,0.0038
1533,0.0195,2.1014,-0.6105,-0.5334,,0.0195
1534,0.0047,2.0886,-0.6105,-0.5591,,0.0047
1535,-0.0067,2.0628,-0.6105,-0.5334,,0.0067
1536,0.0113,2.0371,-0.5976,-0.5334,,0.0113
1537,-0.0779,2.0243,-0.5719,-0.5334,,0.0779
1538,-0.0478,2.0114,-0.5462,-0.5334,,0.0478
1539,-0.1109,1.9857,-0.5205,-0.5591,,0.1109
1540,-0.1285,1.96,-0.5077,-0.5719,,0.1285
1541,-0.1424,1.9343,-0.4691,-0.5848,,0.1424
1542,-0.154,1.8958,-0.4177,-0.5976,,0.154
1543,-0.1124,1.8958,-0.3534,-0.6362,,0.1124
1544,-0.0598,1.8315,-0.3277,-0.6491,,0.0598
1545,-0.0199,1.7929,-0.2635,-0.6748,,0.0199
1546,0.0075,1.7415,-0.2121,-0.739,,0.0075
1547,-0.0188,1.6901,-0.1607,-0.7776,,0.0188
1548,-0.0289,1.6644,-0.1221,-0.7904,,0.0289
1549,-0.0582,1.6387,-0.0835,-0.8418,,0.0582
1550,-0.0312,1.5616,-0.0321,-0.8804,,0.0312
1551,-0.0398,1.5102,-0.0064,-0.8933,,0.0398
1552,0.0308,1.4716,0.0193,-0.9318,,0.0308
1553,0.1179,1.4074,0.0321,-0.9704,,0.1179
1554,0.1669,1.3431,0.0707,-0.9832,,0.1669
1555,0.1644,1.2917,0.0578,-1.0475,,0.1644
1556,0.1866,1.2403,0.0578,-1.0732,,0.1866
1557,0.1408,1.1632,0.0578,-1.0732,,0.1408
1558,0.0193,1.086,0.045,-1.1375,,0.0193
1559,0.062,1.0089,0.045,-1.1246,,0.062
1560,0.1354,0.8933,0.0321,-1.1503,,0.1354
1561,0.0144,0.7519,0.045,-1.1632,,0.0144
1562,-0.0192,0.6105,0.0193,-1.1632,,0.0192
1563,0.0061,0.482,0.0321,-1.2274,,0.0061
1564,0.0068,0.3277,0.0321,-1.266,,0.0068
1565,-0.1319,0.1735,0.0064,-1.3688,,0.1319
1566,-0.2415,0.045,0.0064,-1.4716,,0.2415
1567,-0.3151,-0.0707,0.0064,-1.5744,,0.3151
1568,-0.2358,-0.1607,0.0064,-1.7158,,0.2358
1569,-0.2284,-0.2506,0.0064,-1.8444,,0.2284
1570,-0.11,-0.302,0.0321,-2.0114,,0.11
1571,-0.0111,-0.3534,0.045,-2.1271,,0.0111
1572,-0.0525,-0.392,0.0835,-2.307,,0.0525
1573,-0.1433,-0.4177,0.135,-2.4613,,0.1433
1574,-0.1833,-0.4434,0.1735,-2.5255,,0.1833
1575,-0.1808,-0.4563,0.2121,-2.6155,,0.1808
1576,-0.1866,-0.4563,0.2378,-2.7183,,0.1866
1577,-0.0869,-0.4691,0.2763,-2.7183,,0.0869
1578,0.027,-0.4563,0.302,-2.7312,,0.027
1579,0.1435,-0.4563,0.3406,-2.7183,,0.1435
1580,0.1727,-0.4691,0.3534,-2.7055,,0.1727
1581,0.2213,-0.482,0.392,-2.6669,,0.2213
1582,0.1761,-0.482,0.4306,-2.6541,,0.1761
1583,0.1511,-0.4691,0.4434,-2.6155,,0.1511
1584,0.1478,-0.4563,0.482,-2.577,,0.1478
1585,0.1211,-0.482,0.4691,-2.5512,,0.1211
1586,-0.004,-0.482,0.482,-2.4998,,0.004
1587,-0.1378,-0.4948,0.4691,-2.4613,,0.1378
1588,-0.2766,-0.5077,0.4691,-2.4227,,0.2766
1589,-0.3825,-0.5462,0.4691,-2.3713,,0.3825
1590,-0.2843,-0.5976,0.482,-2.3199,,0.2843
1591,-0.1442,-0.6362,0.482,-2.2813,,0.1442
1592,0.0182,-0.7005,0.5077,-2.2428,,0.0182
1593,0.2752,-0.7904,0.5334,-2.2042,,0.2752
1594,0.3104,-0.9061,0.5719,-2.1271,,0.3104
1595,0.2215,-1.0603,0.6105,-2.1143,,0.2215
1596,0.029,-1.266,0.6619,-2.0371,,0.029
1597,0.0931,-1.4845,0.7133,-1.9857,,0.0931
1598,0.0954,-1.7544,0.7519,-1.8829,,0.0954
1599,-0.1174,-2.0757,0.8161,-1.8315,,0.1174
1600,-0.0193,-2.4227,0.8676,-1.7287,,0.0193
1601,0.0448,-2.7955,0.9061,-1.6259,,0.0448
1602,0.1933,-3.1039,0.9061,-1.5102,,0.1933
1603,0.1971,-3.4381,0.9061,-1.4331,,0.1971
1604,0.3103,-3.708,0.8933,-1.3817,,0.3103
1605,0.5003,-3.9265,0.8547,-1.2788,,0.5003
1606,0.5956,-4.055,0.7904,-1.2917,,0.5956
1607,0.4937,-4.1064,0.7519,-1.2403,,0.4937
1608,0.3634,-4.0679,0.6748,-1.2531,,0.3634
1609,0.2583,-3.9393,0.6105,-1.266,,0.2583
1610,0.1343,-3.7208,0.5591,-1.3045,,0.1343
1611,-0.0484,-3.4638,0.5205,-1.3045,,0.0484
1612,-0.1102,-3.1553,0.482,-1.356,,0.1102
1613,-0.2071,-2.7826,0.4563,-1.356,,0.2071
1614,-0.1401,-2.3842,0.4691,-1.356,,0.1401
1615,-0.2034,-1.9986,0.482,-1.3817,,0.2034
1616,-0.2,-1.5487,0.5077,-1.3688,,0.2
1617,-0.1535,-1.1503,0.5462,-1.3431,,0.1535
1618,-0.1942,-0.739,0.6105,-1.3045,,0.1942
1619,-0.2651,-0.3277,0.7005,-1.2917,,0.2651
1620,-0.3068,0.0707,0.7904,-1.266,,0.3068
1621,-0.2618,0.482,0.8804,-1.2146,,0.2618
1622,-0.0833,0.829,1.0218,-1.2146,,0.0833
1623,0.1619,1.1632,1.0989,-1.1889,,0.1619
1624,0.3526,1.4202,1.2017,-1.176,,0.3526
1625,0.6188,1.703,1.2788,-1.2017,,0.6188
1626,0.4089,1.9086,1.3431,-1.2146,,0.4089
1627,0.0761,2.0886,1.4074,-1.2403,,0.0761
1628,0.0916,2.2299,1.4331,-1.2917,,0.0916
1629,0.0312,2.3456,1.4588,-1.3688,,0.0312
1630,-0.1124,2.4227,1.4588,-1.4202,,0.1124
1631,-0.1704,2.5127,1.4459,-1.523,,0.1704
1632,-0.1898,2.5898,1.3945,-1.6516,,0.1898
1633,-0.1874,2.6284,1.3302,-1.7415,,0.1874
1634,-0.0954,2.6798,1.2403,-1.8315,,0.0954
1635,-0.0853,2.7183,1.1503,-1.9343,,0.0853
1636,-0.1189,2.7569,1.0475,-2.0243,,0.1189
1637,-0.1453,2.8083,0.9447,-2.1271,,0.1453
1638,-0.2309,2.8469,0.8033,-2.2042,,0.2309
1639,-0.2646,2.8983,0.7005,-2.307,,0.2646
1640,-0.2863,2.9497,0.5848,-2.4227,,0.2863
1641,-0.3145,3.0011,0.4691,-2.487,,0.3145
1642,-0.3746,3.0139,0.3534,-2.5898,,0.3746
1643,-0.3951,3.0782,0.2378,-2.6669,,0.3951
1644,-0.4809,3.1296,0.135,-2.7183,,0.4809
1645,-0.2873,3.1682,0.0707,-2.7955,,0.2873
1646,-0.1315,3.2067,-0.0064,-2.8469,,0.1315
1647,0.2475,3.2324,-0.0835,-2.8597,,0.2475
1648,0.7245,3.2581,-0.1607,-2.8597,,0.7245
1649,1.145,3.271,-0.2121,-2.8597,,1.145
1650,1.3112,3.2581,-0.2506,-2.744,,1.3112
1651,0.9564,3.2324,-0.302,-2.6284,,0.9564
1652,0.6769,3.2196,-0.3534,-2.5898,,0.6769
1653,0.3994,3.2196,-0.4049,-2.5127,,0.3994
1654,0.0059,3.1553,-0.4434,-2.4484,,0.0059
1655,-0.3106,3.1296,-0.4691,-2.3585,,0.3106
1656,-0.3778,3.0911,-0.4563,-2.2813,,0.3778
1657,-0.2605,3.0268,-0.4691,-2.2042,,0.2605
1658,-0.0593,2.9625,-0.4434,-2.1271,,0.0593
1659,-0.0699,2.8854,-0.4049,-2.0371,,0.0699
1660,-0.0999,2.7955,-0.3663,-1.9086,,0.0999
1661,-0.3771,2.7055,-0.302,-1.8444,,0.3771
1662,-0.3419,2.6284,-0.2506,-1.7415,,0.3419
1663,-0.1497,2.5127,-0.2121,-1.6516,,0.1497
1664,-0.1138,2.4356,-0.1735,-1.5616,,0.1138
1665,0.0491,2.3456,-0.1221,-1.523,,0.0491
1666,0.0918,2.2428,-0.0835,-1.4331,,0.0918
1667,0.025,2.1528,-0.045,-1.3817,,0.025
1668,-0.004,2.0757,-0.0064,-1.3431,,0.004
1669,-0.0177,2.0114,0.0064,-1.3174,,0.0177
1670,0.0153,1.9343,0.0578,-1.3045,,0.0153
1671,-0.0014,1.8315,0.0707,-1.2788,,0.0014
1672,-0.1126,1.7801,0.1092,-1.2274,,0.1126
1673,-0.3336,1.703,0.1221,-1.1889,,0.3336
1674,-0.413,1.6644,0.135,-1.1632,,0.413
1675,-0.4327,1.6002,0.1478,-1.1246,,0.4327
1676,-0.2378,1.5744,0.1607,-1.0989,,0.2378
1677,0.0072,1.5359,0.1864,-1.0475,,0.0072
1678,0.2262,1.4973,0.1735,-1.0346,,0.2262
1679,0.3027,1.4973,0.1864,-1.0089,,0.3027
1680,0.2862,1.4716,0.1735,-0.9832,,0.2862
1681,0.1141,1.4588,0.1735,-0.9447,,0.1141
1682,0.0287,1.4331,0.1864,-0.919,,0.0287
1683,-0.0394,1.4202,0.2249,-0.8804,,0.0394
1684,-0.0951,1.4074,0.1992,-0.8676,,0.0951
1685,-0.2027,1.3817,0.2121,-0.8418,,0.2027
1686,-0.2236,1.3817,0.1992,-0.8418,,0.2236
1687,-0.0518,1.3817,0.1992,-0.8547,,0.0518
1688,0.1171,1.3817,0.1864,-0.8418,,0.1171
1689,-0.0746,1.3688,0.1864,-0.8161,,0.0746
1690,-0.2501,1.3688,0.1992,-0.8161,,0.2501
1691,-0.0825,1.3945,0.1992,-0.829,,0.0825
1692,0.1493,1.3945,0.1992,-0.829,,0.1493
1693,0.3143,1.4074,0.1864,-0.829,,0.3143
1694,0.4566,1.4202,0.1864,-0.8161,,0.4566
1695,0.5923,1.4331,0.1864,-0.8676,,0.5923
1696,0.5162,1.4459,0.1735,-0.8547,,0.5162
1697,0.3,1.4459,0.1735,-0.8547,,0.3
1698,0.2489,1.4845,0.1735,-0.8676,,0.2489
1699,0.0701,1.4588,0.1607,-0.8418,,0.0701
1700,-0.0351,1.4588,0.1607,-0.8547,,0.0351
1701,0.1059,1.4588,0.1478,-0.8418,,0.1059
1702,0.0863,1.4845,0.1092,-0.8547,,0.0863
1703,-0.1049,1.5102,0.0964,-0.8033,,0.1049
1704,-0.2531,1.523,0.0964,-0.8418,,0.2531
1705,-0.3519,1.523,0.1221,-0.7647,,0.3519
1706,-0.3866,1.5102,0.1092,-0.739,,0.3866
1707,-0.3828,1.4973,0.0964,-0.6748,,0.3828
1708,-0.2647,1.4845,0.0578,-0.5976,,0.2647
1709,-0.0665,1.4716,0.045,-0.5719,,0.0665
1710,0.1439,1.4331,0.0064,-0.5077,,0.1439
1711,0.1196,1.4202,-0.0321,-0.4306,,0.1196
1712,0.1208,1.4202,-0.0835,-0.3406,,0.1208
1713,0.2349,1.3431,-0.0964,-0.2892,,0.2349
1714,0.1767,1.2917,-0.135,-0.2121,,0.1767
1715,0.1184,1.2531,-0.1607,-0.1478,,0.1184
1716,0.1285,1.2146,-0.1992,-0.0578,,0.1285
1717,0.1041,1.1889,-0.2249,0.0064,,0.1041
1718,0.2389,1.176,-0.2506,0.0964,,0.2389
1719,0.2843,1.1118,-0.2892,0.1607,,0.2843
1720,0.1166,1.0603,-0.3149,0.2121,,0.1166
1721,-0.0331,1.0089,-0.3149,0.2506,,0.0331
1722,0.0628,0.9575,-0.302,0.3149,,0.0628
1723,0.1324,0.8933,-0.3534,0.392,,0.1324
1724,0.1396,0.8161,-0.3792,0.4049,,0.1396
1725,0.1116,0.7776,-0.4049,0.4434,,0.1116
1726,0.1036,0.7519,-0.4434,0.482,,0.1036
1727,0.0343,0.739,-0.4691,0.5334,,0.0343
1728,-0.0744,0.7262,-0.4563,0.5334,,0.0744
1729,-0.1849,0.7005,-0.4563,0.5719,,0.1849
1730,-0.2188,0.6748,-0.4434,0.5591,,0.2188
1731,-0.18,0.6105,-0.4177,0.5462,,0.18
1732,-0.1244,0.5591,-0.4049,0.5334,,0.1244
1733,-0.0792,0.5077,-0.392,0.5334,,0.0792
1734,-0.0884,0.4563,-0.3792,0.5334,,0.0884
1735,-0.0125,0.4306,-0.3663,0.4948,,0.0125
1736,0.3055,0.3534,-0.3406,0.4691,,0.3055
1737,0.5826,0.302,-0.3149,0.5077,,0.5826
1738,0.5799,0.2506,-0.3149,0.482,,0.5799
1739,0.3018,0.2121,-0.2763,0.4434,,0.3018
1740,0.0267,0.1607,-0.2506,0.4177,,0.0267
1741,-0.1305,0.1221,-0.2378,0.392,,0.1305
1742,-0.1896,0.0835,-0.2249,0.3663,,0.1896
1743,-0.2117,0.0835,-0.2121,0.3277,,0.2117
1744,-0.2071,0.0193,-0.1735,0.3149,,0.2071
1745,-0.1312,-0.0064,-0.1478,0.2892,,0.1312
1746,-0.0164,-0.0321,-0.1092,0.2506,,0.0164
1747,-0.0141,-0.0835,-0.0964,0.2121,,0.0141
1748,-0.0298,-0.0835,-0.0707,0.1478,,0.0298
1749,-0.0196,-0.0707,-0.045,0.1221,,0.0196
1750,-0.0486,-0.0707,-0.0064,0.0707,,0.0486
1751,-0.1137,-0.0578,0.0064,0.0064,,0.1137
1752,-0.1782,-0.0707,0.0193,-0.0707,,0.1782
1753,-0.1726,-0.0193,0.045,-0.135,,0.1726
1754,-0.0977,-0.0064,0.0321,-0.2249,,0.0977
1755,0.0064,0.0193,0.0578,-0.302,,0.0064
1756,0.0482,0.0578,0.0578,-0.3792,,0.0482
1757,0.1368,0.0964,0.0578,-0.4691,,0.1368
1758,0.2162,0.135,0.0321,-0.5719,,0.2162
1759,0.2837,0.1864,0.0193,-0.6876,,0.2837
1760,0.3202,0.2378,-0.0064,-0.7776,,0.3202
1761,0.3121,0.2892,-0.0193,-0.8676,,0.3121
1762,0.1231,0.3406,-0.045,-0.9832,,0.1231
1763,-0.1671,0.4049,-0.0964,-1.0603,,0.1671
1764,-0.3299,0.4691,-0.135,-1.176,,0.3299
1765,-0.177,0.5719,-0.1864,-1.2788,,0.177
1766,-0.0155,0.6362,-0.2378,-1.3817,,0.0155
1767,0.0319,0.7133,-0.3149,-1.4331,,0.0319
1768,0.0137,0.829,-0.3792,-1.5102,,0.0137
1769,-0.0372,0.8804,-0.4434,-1.6002,,0.0372
1770,-0.2008,0.9961,-0.4948,-1.6773,,0.2008
1771,-0.3068,1.1118,-0.5719,-1.7415,,0.3068
1772,-0.3713,1.2017,-0.6362,-1.8186,,0.3713
1773,-0.4053,1.3174,-0.7005,-1.8701,,0.4053
1774,-0.381,1.4331,-0.7519,-1.9215,,0.381
1775,-0.2141,1.5487,-0.7904,-1.9857,,0.2141
1776,0.0206,1.6773,-0.829,-2.0757,,0.0206
1777,0.1617,1.7929,-0.8676,-2.14,,0.1617
1778,0.0916,1.9343,-0.8933,-2.1785,,0.0916
1779,-0.2283,2.0628,-0.9061,-2.2299,,0.2283
1780,-0.374,2.2042,-0.919,-2.2428,,0.374
1781,-0.5232,2.3328,-0.9318,-2.2813,,0.5232
1782,-0.2668,2.4613,-0.9061,-2.3456,,0.2668
1783,0.2038,2.6027,-0.8418,-2.3713,,0.2038
1784,0.6199,2.7569,-0.8033,-2.3713,,0.6199
1785,0.8033,2.8726,-0.739,-2.397,,0.8033
1786,0.4982,3.0139,-0.6876,-2.4356,,0.4982
1787,0.2175,3.1296,-0.6491,-2.4484,,0.2175
1788,0.2075,3.2324,-0.5591,-2.4227,,0.2075
1789,0.2027,3.3224,-0.482,-2.397,,0.2027
1790,0.2504,3.3995,-0.4177,-2.3585,,0.2504
1791,0.3211,3.4638,-0.3406,-2.2942,,0.3211
1792,0.1789,3.5281,-0.2892,-2.2171,,0.1789
1793,0.232,3.5538,-0.2121,-2.1143,,0.232
1794,0.1346,3.5795,-0.1478,-1.9986,,0.1346
1795,0.0801,3.5666,-0.0835,-1.9086,,0.0801
1796,0.1511,3.5409,-0.0193,-1.7544,,0.1511
1797,0.0589,3.5023,0.045,-1.6516,,0.0589
1798,-0.2773,3.4124,0.0707,-1.4845,,0.2773
1799,-0.4239,3.3224,0.0964,-1.2917,,0.4239
1800,-0.4984,3.1939,0.135,-1.1503,,0.4984
1801,-0.2149,3.0654,0.135,-0.9318,,0.2149
1802,0.0343,2.9368,0.1478,-0.7904,,0.0343
1803,0.2197,2.7826,0.135,-0.6234,,0.2197
1804,0.088,2.6027,0.1221,-0.4434,,0.088
1805,0.1795,2.4227,0.1221,-0.3406,,0.1795
1806,-0.1519,2.1914,0.1092,-0.1864,,0.1519
1807,-0.4631,1.9857,0.1221,-0.0964,,0.4631
1808,-2.0621,1.7287,0.1478,-0.0064,,2.0621
1809,-2.4001,1.4845,0.1864,0.045,,2.4001
1810,-1.3057,1.2146,0.2635,0.0707,,1.3057
1811,0.0847,0.919,0.3663,0.0964,,0.0847
1812,1.838,0.6105,0.4948,0.0835,,1.838
1813,2.4,0.302,0.6105,0.0707,,2.4
1814,1.1627,-0.0193,0.7647,0.0193,,1.1627
1815,0.2094,-0.3792,0.9061,-0.0064,,0.2094
1816,-0.1159,-0.7005,1.0346,-0.1221,,0.1159
1817,-0.1807,-1.0218,1.1503,-0.2635,,0.1807
1818,-0.0218,-1.3302,1.2274,-0.4177,,0.0218
1819,-0.1105,-1.6259,1.2917,-0.6105,,0.1105
1820,-1.0072,-1.8829,1.2917,-0.8033,,1.0072
1821,-1.8191,-2.2171,1.2788,-1.0089,,1.8191
1822,-2.1881,-2.4099,1.2274,-1.2788,,2.1881
1823,-0.7836,-2.7569,1.1889,-1.6002,,0.7836
1824,1.1606,-3.0654,1.1246,-1.9729,,1.1606
1825,2.4,-3.3738,1.0089,-2.3456,,2.4
1826,2.4,-3.5538,0.8676,-2.6798,,2.4
1827,1.9178,-3.708,0.7262,-2.8983,,1.9178
1828,0.3407,-3.8494,0.5976,-3.0139,,0.3407
1829,-1.0552,-4.0807,0.5205,-3.0268,,1.0552
1830,-1.8451,-4.2735,0.4691,-2.8469,,1.8451
1831,-2.1029,-4.4277,0.4049,-2.577,,2.1029
1832,-1.3614,-4.5177,0.3663,-2.2428,,1.3614
1833,-0.4487,-4.5306,0.3277,-1.8315,,0.4487
1834,0.5085,-4.492,0.3277,-1.4459,,0.5085
1835,0.9832,-4.402,0.3406,-1.1503,,0.9832
1836,1.2615,-4.2735,0.392,-0.919,,1.2615
1837,1.3458,-4.1321,0.4434,-0.7776,,1.3458
1838,0.5868,-3.9522,0.4948,-0.7647,,0.5868
1839,0.263,-3.798,0.5719,-0.8418,,0.263
1840,-0.6216,-3.6437,0.6619,-0.9575,,0.6216
1841,-0.929,-3.4895,0.7133,-1.1118,,0.929
1842,0.0287,-3.3353,0.7776,-1.2917,,0.0287
1843,0.1555,-3.1682,0.8033,-1.4588,,0.1555
1844,0.1235,-2.9882,0.8161,-1.5873,,0.1235
1845,-1.8611,-2.8212,0.7904,-1.6773,,1.8611
1846,-2.4001,-2.6541,0.8033,-1.703,,2.4001
1847,-2.2002,-2.4741,0.7647,-1.7544,,2.2002
1848,-0.614,-2.307,0.7647,-1.7415,,0.614
1849,2.2277,-2.14,0.7519,-1.7801,,2.2277
1850,2.4,-1.9729,0.7647,-1.7544,,2.4
1851,2.4,-1.7929,0.7776,-1.703,,2.4
1852,2.4,-1.6516,0.7776,-1.6901,,2.4
1853,1.2835,-1.4845,0.7647,-1.6773,,1.2835
1854,0.6356,-1.3302,0.7647,-1.6516,,0.6356
1855,0.6001,-1.1889,0.7519,-1.6516,,0.6001
1856,0.5064,-1.0346,0.7133,-1.6644,,0.5064
1857,0.5553,-0.8804,0.7005,-1.6644,,0.5553
1858,0.4778,-0.7005,0.6748,-1.6901,,0.4778
1859,-0.3787,-0.5462,0.6234,-1.7415,,0.3787
1860,-1.1893,-0.3534,0.5848,-1.7929,,1.1893
1861,-1.9668,-0.2249,0.5719,-1.8958,,1.9668
1862,-2.3755,-0.1092,0.5591,-1.9729,,2.3755
1863,-1.7535,0.0064,0.5591,-2.0628,,1.7535
1864,-1.4113,0.1221,0.5591,-2.14,,1.4113
1865,-0.9356,0.1992,0.5719,-2.2299,,0.9356
1866,-0.0968,0.2635,0.5848,-2.2813,,0.0968
1867,-0.0108,0.3149,0.5848,-2.2813,,0.0108
1868,-0.322,0.3663,0.5976,-2.307,,0.322
1869,-1.197,0.3663,0.6105,-2.307,,1.197
1870,-1.2474,0.3663,0.6234,-2.2685,,1.2474
1871,0.0495,0.3792,0.6491,-2.2556,,0.0495
1872,0.9486,0.4049,0.6491,-2.2299,,0.9486
1873,1.6171,0.4177,0.6491,-2.1785,,1.6171
1874,2.1097,0.4177,0.6619,-2.1528,,2.1097
1875,1.0416,0.4306,0.6748,-2.1143,,1.0416
1876,-0.0234,0.4563,0.6876,-2.0628,,0.0234
1877,-0.4542,0.4948,0.7005,-2.05,,0.4542
1878,-1.0226,0.5205,0.7005,-2.0371,,1.0226
1879,0.0075,0.5591,0.7005,-2.0243,,0.0075
1880,1.4016,0.5976,0.7133,-2.0371,,1.4016
1881,2.002,0.6362,0.7005,-2.0114,,2.002
1882,1.7307,0.6748,0.7005,-1.9986,,1.7307
1883,1.3593,0.739,0.6876,-2.0114,,1.3593
1884,0.8502,0.7519,0.6619,-1.9729,,0.8502
1885,0.6088,0.7904,0.6491,-1.9986,,0.6088
1886,0.4392,0.8161,0.6234,-1.9986,,0.4392
1887,0.188,0.8676,0.6105,-1.9986,,0.188
1888,-0.0686,0.919,0.5848,-1.9729,,0.0686
1889,-0.153,0.9575,0.5591,-1.9729,,0.153
1890,-0.3598,1.0218,0.5334,-1.9472,,0.3598
1891,-0.5451,1.0475,0.5077,-1.9472,,0.5451
1892,-0.5906,1.086,0.482,-1.9215,,0.5906
1893,-0.4203,1.1375,0.4691,-1.8829,,0.4203
1894,-0.313,1.176,0.4306,-1.8829,,0.313
1895,-0.1947,1.2146,0.4177,-1.8315,,0.1947
1896,-0.2632,1.2531,0.392,-1.8572,,0.2632
1897,-0.8195,1.2917,0.3663,-1.8701,,0.8195
1898,-0.8575,1.356,0.3406,-1.8186,,0.8575
1899,-0.4628,1.3817,0.3149,-1.8058,,0.4628
1900,0.0126,1.3945,0.3149,-1.7929,,0.0126
1901,0.4844,1.4459,0.302,-1.7544,,0.4844
1902,0.4622,1.4588,0.302,-1.7287,,0.4622
1903,0.154,1.5102,0.2635,-1.7158,,0.154
1904,-1.1491,1.523,0.2635,-1.6644,,1.1491
1905,-1.5793,1.5487,0.2506,-1.6259,,1.5793
1906,-1.5456,1.5744,0.2506,-1.6002,,1.5456
1907,-0.4818,1.5744,0.2378,-1.5873,,0.4818
1908,0.76,1.6002,0.2249,-1.5487,,0.76
1909,1.5725,1.6259,0.2378,-1.5102,,1.5725
1910,1.5222,1.6516,0.2121,-1.4973,,1.5222
1911,0.8638,1.6901,0.2121,-1.4845,,0.8638
1912,0.2338,1.703,0.1992,-1.4716,,0.2338
1913,-0.0386,1.7287,0.1992,-1.4588,,0.0386
1914,0.0086,1.7415,0.1992,-1.4588,,0.0086
1915,0.0606,1.7287,0.1864,-1.4331,,0.0606
1916,-0.0252,1.7415,0.1735,-1.4202,,0.0252
1917,-0.4008,1.7544,0.1735,-1.3945,,0.4008
1918,-0.6136,1.7929,0.1478,-1.3817,,0.6136
1919,-0.559,1.7929,0.1221,-1.3688,,0.559
1920,-0.5088,1.7929,0.135,-1.3431,,0.5088
1921,-0.2211,1.7672,0.1221,-1.3302,,0.2211
1922,0.0478,1.7672,0.1092,-1.3302,,0.0478
1923,0.1988,1.7801,0.0835,-1.3174,,0.1988
1924,0.2876,1.7801,0.0707,-1.2788,,0.2876
1925,0.3104,1.7672,0.045,-1.2403,,0.3104
1926,-0.0939,1.7544,0.0321,-1.2403,,0.0939
1927,-0.7987,1.7415,0.0193,-1.2274,,0.7987
1928,-0.9801,1.7158,-0.0064,-1.2017,,0.9801
1929,-0.2598,1.6901,-0.0064,-1.176,,0.2598
1930,0.5064,1.6644,-0.0193,-1.1503,,0.5064
1931,1.1486,1.6387,-0.0321,-1.0989,,1.1486
1932,1.216,1.613,-0.045,-1.086,,1.216
1933,0.6893,1.5744,-0.0707,-1.0475,,0.6893
1934,0.2164,1.5616,-0.0835,-0.9832,,0.2164
1935,0.0643,1.5487,-0.0835,-0.9575,,0.0643
1936,-0.0201,1.5359,-0.0964,-0.9318,,0.0201
1937,-0.0753,1.5487,-0.1092,-0.8804,,0.0753
1938,-0.0368,1.5616,-0.135,-0.8547,,0.0368
1939,-0.0069,1.5616,-0.1478,-0.8161,,0.0069
1940,-0.019,1.5616,-0.1478,-0.7904,,0.019
1941,-0.0665,1.5744,-0.1478,-0.7647,,0.0665
1942,-0.2088,1.6002,-0.1607,-0.7519,,0.2088
1943,-0.2528,1.613,-0.1864,-0.7262,,0.2528
1944,-0.2789,1.6387,-0.1992,-0.7262,,0.2789
1945,-0.2159,1.6773,-0.2121,-0.6876,,0.2159
1946,-0.1072,1.6901,-0.2249,-0.6491,,0.1072
1947,0.0041,1.703,-0.2249,-0.6619,,0.0041
1948,0.0394,1.7287,-0.2378,-0.6362,,0.0394
1949,0.0635,1.7415,-0.2378,-0.6362,,0.0635
1950,0.102,1.7672,-0.2506,-0.5976,,0.102
1951,0.1423,1.7801,-0.2506,-0.5848,,0.1423
1952,0.1373,1.7929,-0.2506,-0.5848,,0.1373
1953,0.0741,1.8058,-0.2763,-0.5719,,0.0741
1954,0.0327,1.8186,-0.2506,-0.5334,,0.0327
1955,-0.0097,1.8186,-0.2763,-0.5077,,0.0097
1956,-0.08,1.8315,-0.2763,-0.482,,0.08
1957,-0.1589,1.8058,-0.2892,-0.4691,,0.1589
1958,-0.1806,1.8186,-0.3149,-0.4563,,0.1806
1959,-0.1489,1.8315,-0.3406,-0.4306,,0.1489
1960,-0.1035,1.8315,-0.3406,-0.4306,,0.1035
1961,-0.075,1.8315,-0.3534,-0.4049,,0.075
1962,-0.0156,1.8572,-0.392,-0.4049,,0.0156
1963,0.0125,1.8572,-0.4177,-0.3792,,0.0125
1964,0.0598,1.8958,-0.4434,-0.4177,,0.0598
1965,0.0929,1.9343,-0.4563,-0.4306,,0.0929
1966,0.1089,1.9472,-0.4691,-0.4306,,0.1089
1967,-0.0168,1.9472,-0.482,-0.4306,,0.0168
1968,-0.1573,1.9215,-0.4691,-0.4691,,0.1573
1969,-0.1328,1.8701,-0.4691,-0.4948,,0.1328
1970,-0.0588,1.7801,-0.4563,-0.5205,,0.0588
1971,-0.0129,1.7287,-0.4306,-0.5077,,0.0129
1972,0.0009,1.6901,-0.4434,-0.5591,,0.0009
1973,0.042,1.6644,-0.4434,-0.5976,,0.042
1974,0.047,1.6387,-0.4563,-0.5976,,0.047
1975,-0.0162,1.613,-0.4563,-0.6234,,0.0162
1976,-0.0439,1.6002,-0.4948,-0.6362,,0.0439
1977,-0.0593,1.5744,-0.482,-0.6234,,0.0593
1978,-0.0567,1.5359,-0.5077,-0.6362,,0.0567
1979,-0.0192,1.523,-0.5205,-0.6362,,0.0192
1980,0.0127,1.4716,-0.5334,-0.6362,,0.0127
1981,0.0576,1.4202,-0.5334,-0.6362,,0.0576
1982,0.1276,1.3688,-0.5334,-0.6362,,0.1276
1983,-0.0497,1.3174,-0.5334,-0.6234,,0.0497
1984,-0.1055,1.2403,-0.5462,-0.6105,,0.1055
1985,-0.0059,1.1632,-0.5462,-0.6362,,0.0059
1986,0.068,1.1118,-0.5334,-0.6234,,0.068
1987,0.0431,1.0475,-0.5205,-0.6105,,0.0431
1988,-0.0259,0.9832,-0.5205,-0.6234,,0.0259
1989,-0.0862,0.9318,-0.5077,-0.6619,,0.0862
1990,-0.0777,0.919,-0.5205,-0.6491,,0.0777
1991,-0.0793,0.8547,-0.5077,-0.6876,,0.0793
1992,-0.081,0.7904,-0.4948,-0.7262,,0.081
1993,-0.0782,0.739,-0.4691,-0.7519,,0.0782
1994,-0.0566,0.6748,-0.4691,-0.8161,,0.0566
1995,-0.0247,0.6234,-0.4563,-0.8804,,0.0247
1996,0.0473,0.5976,-0.4434,-0.9447,,0.0473
1997,-0.0622,0.5719,-0.4434,-0.9575,,0.0622
1998,-0.0346,0.5848,-0.4563,-1.0346,,0.0346
1999,0.0506,0.5462,-0.4306,-1.1246,,0.0506
2000,0.0653,0.5591,-0.4177,-1.1889,,0.0653
2001,0.0412,0.5848,-0.392,-1.2274,,0.0412
2002,-0.0089,0.5976,-0.4049,-1.266,,0.0089
2003,0.0188,0.6362,-0.3663,-1.3302,,0.0188
2004,0.0803,0.6876,-0.3406,-1.356,,0.0803
2005,0.0916,0.7262,-0.3406,-1.3817,,0.0916
2006,0.1599,0.7776,-0.302,-1.4202,,0.1599
2007,0.101,0.829,-0.2635,-1.4331,,0.101
2008,0.062,0.9061,-0.2249,-1.4459,,0.062
2009,0.005,0.9318,-0.2121,-1.4716,,0.005
2010,0.0561,0.9832,-0.1735,-1.5102,,0.0561
2011,0.0612,1.0218,-0.1478,-1.5102,,0.0612
2012,0.0302,1.0603,-0.1221,-1.5102,,0.0302
2013,-0.046,1.1375,-0.0835,-1.523,,0.046
2014,-0.1046,1.1375,-0.0578,-1.5487,,0.1046
2015,-0.1345,1.1503,-0.0193,-1.5744,,0.1345
2016,-0.0438,1.1632,0.0193,-1.6387,,0.0438
2017,-0.0437,1.1889,0.0835,-1.6516,,0.0437
2018,-0.1166,1.1889,0.1221,-1.703,,0.1166
2019,-0.1497,1.1889,0.1735,-1.7801,,0.1497
2020,-0.1803,1.1632,0.2121,-1.7929,,0.1803
2021,-0.1354,1.1246,0.2635,-1.8829,,0.1354
2022,-0.1709,1.0603,0.3149,-1.8958,,0.1709
2023,-0.2137,0.9832,0.3663,-1.9343,,0.2137
2024,-0.2032,0.8676,0.4306,-2.0371,,0.2032
2025,-0.2309,0.739,0.4691,-2.0628,,0.2309
2026,-0.2262,0.6234,0.5077,-2.0886,,0.2262
2027,-0.1822,0.482,0.5334,-2.0886,,0.1822
2028,-0.0697,0.3149,0.5719,-2.1143,,0.0697
2029,0.0495,0.1607,0.5848,-2.1271,,0.0495
2030,0.1502,-0.0064,0.6105,-2.1143,,0.1502
2031,0.2122,-0.1864,0.6362,-2.0757,,0.2122
2032,0.0979,-0.3663,0.6491,-2.05,,0.0979
2033,-0.025,-0.5334,0.6491,-2.0371,,0.025
2034,-0.0925,-0.7133,0.6619,-2.0114,,0.0925
2035,-0.039,-0.8933,0.6491,-1.9472,,0.039
2036,0.0926,-1.0732,0.6491,-1.96,,0.0926
2037,0.0784,-1.2531,0.6362,-1.9086,,0.0784
2038,0.1836,-1.3945,0.6105,-1.8701,,0.1836
2039,0.268,-1.6002,0.5976,-1.8444,,0.268
2040,0.2734,-1.7544,0.5848,-1.7929,,0.2734
2041,0.0719,-1.9215,0.5591,-1.7287,,0.0719
2042,-0.1077,-2.0628,0.5205,-1.6773,,0.1077
2043,-0.0781,-2.2042,0.4948,-1.6387,,0.0781
2044,-0.0367,-2.307,0.4563,-1.5744,,0.0367
2045,-0.0118,-2.4227,0.4177,-1.5359,,0.0118
2046,0.0248,-2.5127,0.3792,-1.4973,,0.0248
2047,0.0816,-2.6027,0.3663,-1.4588,,0.0816
2048,0.1423,-2.6798,0.3277,-1.4202,,0.1423
2049,0.2497,-2.7055,0.302,-1.3945,,0.2497
2050,0.3697,-2.7312,0.2892,-1.3817,,0.3697
2051,0.4781,-2.7569,0.2635,-1.3945,,0.4781
2052,0.402,-2.744,0.2378,-1.3945,,0.402
2053,0.2974,-2.6926,0.2249,-1.356,,0.2974
2054,0.1997,-2.6541,0.1992,-1.3688,,0.1997
2055,0.0947,-2.6027,0.2121,-1.356,,0.0947
2056,-0.1014,-2.5127,0.1992,-1.356,,0.1014
2057,-0.2676,-2.4356,0.1864,-1.356,,0.2676
2058,-0.4896,-2.307,0.1864,-1.3688,,0.4896
2059,-0.4972,-2.1657,0.1992,-1.3431,,0.4972
2060,-0.3946,-2.05,0.2121,-1.356,,0.3946
2061,-0.3271,-1.9215,0.2249,-1.356,,0.3271
2062,-0.3598,-1.7801,0.2506,-1.3174,,0.3598
2063,-0.2588,-1.6259,0.2635,-1.2917,,0.2588
2064,-0.1473,-1.5102,0.2892,-1.2531,,0.1473
2065,0.0595,-1.3817,0.3149,-1.2274,,0.0595
2066,-0.0468,-1.266,0.3406,-1.176,,0.0468
2067,-0.051,-1.1503,0.3663,-1.1375,,0.051
2068,0.0584,-1.0218,0.4177,-1.0989,,0.0584
2069,0.2345,-0.9704,0.4691,-1.0346,,0.2345
2070,0.3436,-0.9061,0.5205,-1.0218,,0.3436
2071,0.2684,-0.829,0.5848,-1.0089,,0.2684
2072,0.1195,-0.7776,0.6362,-0.9961,,0.1195
2073,-0.0495,-0.6748,0.7005,-0.9961,,0.0495
2074,-0.0525,-0.5848,0.739,-0.9832,,0.0525
2075,0.0482,-0.482,0.7776,-1.0218,,0.0482
2076,-0.0226,-0.3792,0.8033,-1.0603,,0.0226
2077,0.0483,-0.2506,0.8161,-1.1246,,0.0483
2078,0.0571,-0.1221,0.829,-1.1503,,0.0571
2079,0.0713,0.0321,0.8418,-1.2146,,0.0713
2080,0.0577,0.1735,0.8161,-1.2788,,0.0577
2081,0.016,0.3406,0.8418,-1.3688,,0.016
2082,0.0024,0.5077,0.8033,-1.4331,,0.0024
2083,-0.0316,0.6876,0.7647,-1.4845,,0.0316
2084,-0.0893,0.8547,0.7519,-1.5102,,0.0893
2085,-0.1523,1.0218,0.7262,-1.5744,,0.1523
2086,0.02,1.1889,0.6876,-1.5873,,0.02
2087,0.3514,1.3431,0.6876,-1.6387,,0.3514
2088,0.4282,1.4973,0.6362,-1.613,,0.4282
2089,0.3447,1.6387,0.5848,-1.5873,,0.3447
2090,0.235,1.7544,0.5719,-1.5616,,0.235
2091,0.0239,1.8829,0.5462,-1.4845,,0.0239
2092,-0.2389,1.9472,0.5077,-1.4459,,0.2389
2093,-0.4822,2.0371,0.4948,-1.4202,,0.4822
2094,-0.6021,2.1014,0.4691,-1.4973,,0.6021
2095,-0.6196,2.2042,0.4306,-1.5616,,0.6196
2096,-0.4279,2.2942,0.3792,-1.7158,,0.4279
2097,-0.0735,2.397,0.3149,-1.8701,,0.0735
2098,0.1785,2.5384,0.2506,-2.0757,,0.1785
2099,0.4579,2.6284,0.1992,-2.2813,,0.4579
2100,0.9249,2.7312,0.1607,-2.4227,,0.9249
2101,0.8005,2.7826,0.1478,-2.5255,,0.8005
2102,0.3365,2.8212,0.1221,-2.5512,,0.3365
2103,0.1033,2.8469,0.135,-2.5255,,0.1033
2104,-0.1473,2.8726,0.1221,-2.5255,,0.1473
2105,-0.251,2.8983,0.1092,-2.487,,0.251
2106,-0.3412,2.924,0.0835,-2.5127,,0.3412
2107,-0.4258,2.9625,0.0835,-2.5641,,0.4258
2108,-0.46,2.9882,0.0578,-2.5898,,0.46
2109,-0.5455,3.0011,0.0578,-2.6027,,0.5455
2110,-0.5202,3.0139,0.045,-2.6412,,0.5202
2111,-0.307,3.0268,0.045,-2.6412,,0.307
2112,0.2973,3.0268,0.045,-2.6669,,0.2973
2113,0.6069,3.0011,0.0321,-2.6284,,0.6069
2114,0.5483,2.9625,-0.0064,-2.6027,,0.5483
2115,0.3702,2.9368,0.0064,-2.5512,,0.3702
2116,0.5179,2.8983,0.0064,-2.5127,,0.5179
2117,0.5334,2.834,0.0064,-2.4484,,0.5334
2118,0.3451,2.7955,-0.0193,-2.3842,,0.3451
2119,0.1653,2.744,-0.0193,-2.3456,,0.1653
2120,0.0114,2.6798,-0.0193,-2.2556,,0.0114
2121,-0.1636,2.6284,-0.0321,-2.1657,,0.1636
2122,-0.2562,2.5641,-0.0321,-2.0886,,0.2562
2123,-0.2269,2.5384,-0.045,-1.9986,,0.2269
2124,-0.1595,2.4484,-0.045,-1.9215,,0.1595
2125,-0.2668,2.3713,-0.0321,-1.8315,,0.2668
2126,-0.2862,2.3328,-0.0321,-1.7544,,0.2862
2127,-0.2785,2.2685,-0.0321,-1.6516,,0.2785
2128,-0.3002,2.2299,-0.0321,-1.613,,0.3002
2129,-0.4053,2.1785,-0.045,-1.5359,,0.4053
2130,-0.3652,2.14,-0.0321,-1.4331,,0.3652
2131,0.0787,2.0886,-0.0321,-1.3688,,0.0787
2132,0.296,2.05,-0.0064,-1.2917,,0.296
2133,0.3907,1.9986,-0.0193,-1.2403,,0.3907
2134,0.3946,1.9857,-0.0064,-1.1889,,0.3946
2135,0.2173,1.9343,-0.0064,-1.1503,,0.2173
2136,0.0759,1.9086,-0.0064,-1.0989,,0.0759
2137,0.0709,1.8958,-0.0193,-1.0732,,0.0709
2138,0.1145,1.9086,-0.0064,-1.0475,,0.1145
2139,-0.1561,1.8315,0.0064,-1.0218,,0.1561
2140,-0.2506,1.8058,0.0064,-0.9575,,0.2506
2141,-0.2925,1.7672,0.0064,-0.9704,,0.2925
2142,-0.1052,1.7415,0.0064,-0.9704,,0.1052
2143,0.0664,1.7158,0.0064,-0.9447,,0.0664
2144,0.1207,1.6901,0.0064,-0.9575,,0.1207
2145,0.1425,1.6516,0.0064,-0.9318,,0.1425
2146,-0.0071,1.6516,0.0064,-0.9447,,0.0071
2147,-0.1428,1.613,0.0193,-0.9318,,0.1428
2148,-0.0529,1.5744,0.0193,-0.919,,0.0529
2149,0.2364,1.5616,0.0321,-0.919,,0.2364
2150,0.3459,1.5487,0.0321,-0.8933,,0.3459
2151,0.1387,1.523,0.0321,-0.8933,,0.1387
2152,0.1408,1.5102,0.045,-0.8676,,0.1408
2153,0.112,1.4973,0.045,-0.8418,,0.112
2154,-0.0189,1.4716,0.0321,-0.8418,,0.0189
2155,-0.0297,1.4459,0.0578,-0.7776,,0.0297
2156,0.0067,1.4202,0.0578,-0.739,,0.0067
2157,0.0484,1.4074,0.0321,-0.7133,,0.0484
2158,0.0297,1.3817,0.0321,-0.7005,,0.0297
2159,0.0863,1.356,0.045,-0.6491,,0.0863
2160,-0.0645,1.3431,0.0193,-0.6105,,0.0645
2161,-0.2533,1.2917,0.0064,-0.5462,,0.2533
2162,-0.4485,1.2403,0.0064,-0.5205,,0.4485
2163,-0.3203,1.2146,0.0064,-0.4563,,0.3203
2164,-0.2161,1.1375,-0.0193,-0.4563,,0.2161
2165,-0.1293,1.086,-0.0321,-0.4177,,0.1293
2166,-0.2044,1.0603,-0.0835,-0.3534,,0.2044
2167,-0.1521,1.0603,-0.1092,-0.3149,,0.1521
2168,-0.0078,1.0732,-0.1607,-0.2506,,0.0078
2169,0.2742,1.0603,-0.1735,-0.1992,,0.2742
2170,0.5121,1.0089,-0.1735,-0.1607,,0.5121
2171,0.7725,0.9832,-0.1478,-0.0964,,0.7725
2172,0.8871,0.9318,-0.1478,-0.045,,0.8871
2173,0.9219,0.8676,-0.1478,0.0193,,0.9219
2174,0.8369,0.8161,-0.1607,0.0321,,0.8369
2175,0.2309,0.7647,-0.1992,0.0707,,0.2309
2176,-0.2598,0.7262,-0.1992,0.1221,,0.2598
2177,-0.2867,0.6748,-0.2249,0.135,,0.2867
2178,-0.1218,0.6362,-0.2378,0.1478,,0.1218
2179,-0.1077,0.5976,-0.2635,0.1735,,0.1077
2180,-0.1816,0.5591,-0.2635,0.2121,,0.1816
2181,-0.2024,0.5462,-0.2763,0.2249,,0.2024
2182,-0.2309,0.5205,-0.2763,0.2506,,0.2309
2183,-0.1716,0.5077,-0.2892,0.2249,,0.1716
2184,-0.1114,0.4049,-0.302,0.3406,,0.1114
2185,-0.1159,0.4177,-0.3534,0.3149,,0.1159
2186,0.0134,0.4177,-0.3406,0.2378,,0.0134
2187,0.1251,0.4049,-0.302,0.1864,,0.1251
2188,0.2312,0.3792,-0.2763,0.1478,,0.2312
2189,0.1403,0.3406,-0.2506,0.1478,,0.1403
2190,-0.019,0.3277,-0.2635,0.135,,0.019
2191,0.0434,0.302,-0.2506,0.1221,,0.0434
2192,0.0552,0.2635,-0.2378,0.0835,,0.0552
2193,0.0576,0.2378,-0.2378,0.0707,,0.0576
2194,-0.0795,0.1992,-0.2249,0.045,,0.0795
2195,-0.1358,0.1735,-0.2121,0.0193,,0.1358
2196,-0.1748,0.1478,-0.1864,0.0064,,0.1748
2197,-0.1387,0.135,-0.1864,-0.0321,,0.1387
2198,-0.2098,0.1607,-0.1735,-0.0835,,0.2098
2199,-0.12,0.1478,-0.1607,-0.135,,0.12
2200,-0.0483,0.1607,-0.1478,-0.1735,,0.0483
2201,0.0705,0.1735,-0.1221,-0.2378,,0.0705
2202,0.1059,0.1735,-0.0964,-0.302,,0.1059
2203,0.1712,0.1735,-0.0707,-0.3663,,0.1712
2204,0.1909,0.1864,-0.0707,-0.4306,,0.1909
2205,0.1433,0.2249,-0.045,-0.5205,,0.1433
2206,0.166,0.2249,-0.045,-0.6362,,0.166
2207,0.1338,0.2506,-0.0321,-0.7133,,0.1338
2208,0.1712,0.2892,-0.0193,-0.7904,,0.1712
2209,-0.0193,0.3277,-0.0064,-0.9061,,0.0193
2210,-0.4267,0.3406,0.0064,-0.9704,,0.4267
2211,-0.5758,0.3792,-0.0193,-1.0603,,0.5758
2212,-0.6352,0.4306,0.0064,-1.1632,,0.6352
2213,-0.5553,0.4691,-0.0064,-1.2274,,0.5553
2214,-0.2865,0.5205,-0.0193,-1.3431,,0.2865
2215,0.0028,0.5462,-0.0193,-1.4074,,0.0028
2216,0.3029,0.5848,-0.0321,-1.4973,,0.3029
2217,0.4338,0.6362,-0.0578,-1.5616,,0.4338
2218,-0.016,0.6748,-0.0578,-1.5873,,0.016
2219,-0.1708,0.7133,-0.0964,-1.6773,,0.1708
2220,-0.277,0.7647,-0.1221,-1.7158,,0.277
2221,-0.6439,0.8161,-0.1607,-1.7801,,0.6439
2222,-0.3473,0.8676,-0.1864,-1.8186,,0.3473
2223,0.1775,0.9575,-0.2249,-1.8829,,0.1775
2224,0.5103,0.9961,-0.2506,-1.9343,,0.5103
2225,0.5408,1.0475,-0.2892,-1.9729,,0.5408
2226,0.3675,1.1375,-0.3277,-2.0628,,0.3675
2227,0.1774,1.2403,-0.3534,-2.1271,,0.1774
2228,0.4225,1.3431,-0.3792,-2.1914,,0.4225
2229,0.6554,1.4459,-0.3792,-2.2942,,0.6554
2230,0.6404,1.5487,-0.392,-2.3456,,0.6404
2231,0.4419,1.6773,-0.3792,-2.4484,,0.4419
2232,0.4692,1.7544,-0.3534,-2.5384,,0.4692
2233,0.3579,1.8572,-0.3277,-2.5898,,0.3579
2234,0.2783,1.96,-0.2892,-2.6669,,0.2783
2235,-0.0751,2.0371,-0.2506,-2.6926,,0.0751
2236,-0.3256,2.1143,-0.1992,-2.6926,,0.3256
2237,-0.2493,2.14,-0.1864,-2.5898,,0.2493
2238,-0.235,2.2171,-0.1607,-2.4613,,0.235
2239,-0.1792,2.1785,-0.1607,-2.2685,,0.1792
2240,-0.301,2.1528,-0.1607,-1.9986,,0.301
2241,-0.3007,2.1014,-0.1735,-1.7544,,0.3007
2242,-0.2316,2.0371,-0.1864,-1.4588,,0.2316
2243,-0.2464,1.96,-0.1864,-1.176,,0.2464
2244,-0.2208,1.8701,-0.1864,-0.919,,0.2208
2245,-0.1362,1.7672,-0.1735,-0.7133,,0.1362
2246,-0.2035,1.6387,-0.1607,-0.482,,0.2035
2247,-0.563,1.523,-0.1221,-0.392,,0.563
2248,-1.3987,1.3817,-0.045,-0.3149,,1.3987
2249,-1.7415,1.2531,0.0321,-0.2892,,1.7415
2250,-1.3808,1.1246,0.135,-0.302,,1.3808
2251,-1.3165,0.9832,0.2763,-0.3792,,1.3165
2252,-0.7842,0.8676,0.392,-0.4691,,0.7842
2253,0.4665,0.7262,0.5334,-0.5719,,0.4665
2254,1.2928,0.5205,0.6491,-0.6748,,1.2928
2255,2.3609,0.3277,0.7904,-0.7519,,2.3609
2256,2.4,0.0964,0.8933,-0.829,,2.4
2257,1.7689,-0.1221,0.9832,-0.9318,,1.7689
2258,0.9572,-0.3406,1.0218,-1.0218,,0.9572
2259,0.7256,-0.5462,1.0732,-1.1375,,0.7256
2260,0.4525,-0.8033,1.0989,-1.2917,,0.4525
2261,-0.0419,-1.0475,1.1118,-1.4973,,0.0419
2262,-0.6384,-1.356,1.0989,-1.7415,,0.6384
2263,-0.8043,-1.5102,1.0346,-1.9729,,0.8043
2264,-0.6003,-1.7929,1.0089,-2.1785,,0.6003
2265,-0.708,-2.1143,0.9832,-2.3713,,0.708
2266,-0.7964,-2.3199,0.9061,-2.5255,,0.7964
2267,-1.4829,-2.4998,0.7776,-2.6027,,1.4829
2268,-1.3702,-2.7055,0.7005,-2.6155,,1.3702
2269,-1.6474,-2.9625,0.5848,-2.577,,1.6474
2270,-1.3699,-3.181,0.5077,-2.4484,,1.3699
2271,0.4906,-3.3738,0.4177,-2.3328,,0.4906
2272,2.0781,-3.5409,0.3406,-2.1657,,2.0781
2273,2.4,-3.6694,0.2763,-1.9986,,2.4
2274,2.4,-3.7723,0.2378,-1.8058,,2.4
2275,1.7335,-3.798,0.2249,-1.6644,,1.7335
2276,0.2717,-3.8108,0.2249,-1.5359,,0.2717
2277,-1.5405,-3.7851,0.2378,-1.4588,,1.5405
2278,-2.4001,-3.7337,0.302,-1.4074,,2.4001
2279,-2.4001,-3.6566,0.3406,-1.3817,,2.4001
2280,-2.4001,-3.5666,0.4049,-1.3945,,2.4001
2281,-1.0162,-3.4381,0.4948,-1.4459,,1.0162
2282,-0.2389,-3.3224,0.5719,-1.4716,,0.2389
2283,0.7051,-3.1553,0.6362,-1.523,,0.7051
2284,1.0368,-3.0268,0.6876,-1.5873,,1.0368
2285,1.0471,-2.8854,0.739,-1.6387,,1.0471
2286,1.9142,-2.7183,0.8033,-1.6901,,1.9142
2287,2.0976,-2.5384,0.8418,-1.6901,,2.0976
2288,2.4,-2.3842,0.8804,-1.7158,,2.4
2289,2.4,-2.1914,0.9061,-1.7158,,2.4
2290,1.6683,-2.0243,0.919,-1.7415,,1.6683
2291,1.2054,-1.7929,0.9447,-1.7544,,1.2054
2292,1.044,-1.6002,0.9447,-1.7415,,1.044
2293,0.7661,-1.3817,0.9575,-1.7287,,0.7661
2294,0.0862,-1.2274,0.919,-1.7158,,0.0862
2295,-0.3393,-1.0346,0.9061,-1.703,,0.3393
2296,-0.6434,-0.829,0.8933,-1.7287,,0.6434
2297,-0.5637,-0.6362,0.8547,-1.7287,,0.5637
2298,-0.2403,-0.4434,0.8161,-1.7672,,0.2403
2299,0.1422,-0.2635,0.7647,-1.7801,,0.1422
2300,0.1606,-0.1221,0.7133,-1.8572,,0.1606
2301,-0.0215,0.0193,0.6619,-1.8958,,0.0215
2302,-0.5364,0.1221,0.6362,-1.9343,,0.5364
2303,-0.8303,0.1864,0.5848,-1.9986,,0.8303
2304,-0.7023,0.2763,0.5462,-2.0371,,0.7023
2305,-0.439,0.3534,0.5205,-2.0886,,0.439
2306,-0.1024,0.4563,0.482,-2.1143,,0.1024
2307,0.0937,0.5077,0.482,-2.1271,,0.0937
2308,-0.4035,0.5462,0.4691,-2.14,,0.4035
2309,-2.4001,0.6105,0.4563,-2.1143,,2.4001
2310,-2.4001,0.6234,0.482,-2.1271,,2.4001
2311,-2.4001,0.6234,0.4948,-2.0757,,2.4001
2312,-0.4642,0.6748,0.5334,-2.0243,,0.4642
2313,2.4,0.7005,0.5591,-1.9857,,2.4
2314,2.4,0.7519,0.5848,-1.9343,,2.4
2315,2.4,0.7904,0.5976,-1.8829,,2.4
2316,1.2405,0.829,0.6105,-1.8315,,1.2405
2317,-0.4714,0.8547,0.6362,-1.7929,,0.4714
2318,-0.4351,0.9061,0.6491,-1.7415,,0.4351
2319,-0.0208,0.9061,0.6619,-1.7287,,0.0208
2320,0.3374,0.9447,0.6876,-1.7158,,0.3374
2321,0.7488,0.9704,0.7005,-1.703,,0.7488
2322,0.4485,0.9961,0.7133,-1.6901,,0.4485
2323,0.3971,1.0603,0.7005,-1.6901,,0.3971
2324,0.4771,1.0603,0.7005,-1.6773,,0.4771
2325,0.4061,1.0603,0.7262,-1.7287,,0.4061
2326,0.5884,1.086,0.7133,-1.7287,,0.5884
2327,0.6741,1.0989,0.7133,-1.7158,,0.6741
2328,0.7417,1.0989,0.6876,-1.7544,,0.7417
2329,0.526,1.1118,0.6748,-1.7929,,0.526
2330,-0.0373,1.1246,0.6619,-1.8444,,0.0373
2331,-0.3215,1.1246,0.6234,-1.8186,,0.3215
2332,-0.2665,1.1375,0.6105,-1.7929,,0.2665
2333,-0.0947,1.1375,0.5848,-1.8058,,0.0947
2334,-0.0478,1.1503,0.5719,-1.7801,,0.0478
2335,-0.1647,1.1503,0.5462,-1.7672,,0.1647
2336,-0.0916,1.1375,0.5077,-1.7158,,0.0916
2337,-0.6866,1.1632,0.5077,-1.7158,,0.6866
2338,-0.8345,1.1889,0.4691,-1.6773,,0.8345
2339,-1.651,1.1889,0.4563,-1.6773,,1.651
2340,-1.6068,1.1889,0.4306,-1.6644,,1.6068
2341,-1.2489,1.2146,0.4177,-1.613,,1.2489
2342,-0.3013,1.2274,0.392,-1.613,,0.3013
2343,0.4879,1.2531,0.3792,-1.5873,,0.4879
2344,0.8674,1.2917,0.3663,-1.5616,,0.8674
2345,0.558,1.3174,0.3406,-1.5487,,0.558
2346,0.3646,1.356,0.3149,-1.5102,,0.3646
2347,0.0664,1.3817,0.302,-1.4845,,0.0664
2348,0.034,1.3945,0.2892,-1.4588,,0.034
2349,0.2749,1.4202,0.2763,-1.4716,,0.2749
2350,0.4708,1.4459,0.2506,-1.4074,,0.4708
2351,0.7061,1.4845,0.2378,-1.3817,,0.7061
2352,0.5686,1.523,0.2121,-1.3431,,0.5686
2353,0.1072,1.5744,0.1992,-1.3688,,0.1072
2354,-0.0715,1.6002,0.1735,-1.3302,,0.0715
2355,-0.1002,1.6259,0.1607,-1.2917,,0.1002
2356,-0.2074,1.6516,0.1478,-1.2788,,0.2074
2357,-0.2707,1.6644,0.1221,-1.2403,,0.2707
2358,-0.3015,1.703,0.1221,-1.2274,,0.3015
2359,-0.1332,1.703,0.1092,-1.2274,,0.1332
2360,0.0635,1.7415,0.0964,-1.2146,,0.0635
2361,0.194,1.7672,0.0707,-1.176,,0.194
2362,0.2458,1.7929,0.0578,-1.1503,,0.2458
2363,0.2092,1.8058,0.0321,-1.1632,,0.2092
2364,0.0495,1.8315,0.0321,-1.1246,,0.0495
2365,-0.4555,1.8315,0.0193,-1.1246,,0.4555
2366,-0.9824,1.8315,0.0064,-1.086,,0.9824
2367,-1.0374,1.8315,-0.0193,-1.0732,,1.0374
2368,-0.6112,1.8444,-0.0193,-1.086,,0.6112
2369,-0.1575,1.8315,-0.0321,-1.0346,,0.1575
2370,0.1393,1.8186,-0.0321,-1.0218,,0.1393
2371,0.5515,1.7929,-0.0578,-0.9961,,0.5515
2372,0.8098,1.7929,-0.0707,-1.0218,,0.8098
2373,0.1009,1.7801,-0.0964,-0.9704,,0.1009
2374,-0.7472,1.7801,-0.1092,-0.9704,,0.7472
2375,-1.0321,1.7801,-0.1221,-0.9575,,1.0321
2376,-0.4261,1.7929,-0.1607,-0.9575,,0.4261
2377,0.2971,1.8186,-0.1864,-0.9704,,0.2971
2378,0.9444,1.8315,-0.1992,-0.9832,,0.9444
2379,0.372,1.8315,-0.2121,-0.9447,,0.372
2380,-0.3306,1.8444,-0.2249,-0.8933,,0.3306
2381,-0.4857,1.8572,-0.2378,-0.9061,,0.4857
2382,0.0246,1.8572,-0.2506,-0.8547,,0.0246
2383,0.5671,1.8829,-0.2635,-0.8161,,0.5671
2384,0.9876,1.9086,-0.2763,-0.7776,,0.9876
2385,1.1327,1.9343,-0.2763,-0.7519,,1.1327
2386,0.7234,1.9215,-0.2892,-0.7133,,0.7234
2387,0.3107,1.9343,-0.3149,-0.7005,,0.3107
2388,0.197,1.9472,-0.3149,-0.6619,,0.197
2389,0.148,1.9729,-0.3149,-0.6491,,0.148
2390,0.0048,1.9986,-0.3149,-0.6362,,0.0048
2391,0.0604,2.0114,-0.3149,-0.6234,,0.0604
2392,0.0202,2.0371,-0.3277,-0.6105,,0.0202
2393,-0.0519,2.0757,-0.3406,-0.5848,,0.0519
2394,-0.1126,2.1014,-0.3406,-0.5976,,0.1126
2395,-0.1645,2.1143,-0.3277,-0.5848,,0.1645
2396,-0.1635,2.14,-0.3277,-0.5462,,0.1635
2397,-0.1452,2.14,-0.3406,-0.5462,,0.1452
2398,-0.1203,2.14,-0.3406,-0.5077,,0.1203
2399,-0.0911,2.1657,-0.3277,-0.4948,,0.0911
2400,-0.0833,2.1657,-0.3277,-0.4948,,0.0833
2401,-0.0768,2.1528,-0.3277,-0.4434,,0.0768
2402,-0.1132,2.1528,-0.3277,-0.4434,,0.1132
2403,-0.111,2.1143,-0.3149,-0.4563,,0.111
2404,-0.0894,2.1143,-0.2892,-0.4434,,0.0894
2405,-0.079,2.0886,-0.3149,-0.4177,,0.079
2406,-0.0486,2.0628,-0.3149,-0.4177,,0.0486
2407,0.0089,2.0628,-0.302,-0.4434,,0.0089
2408,0.0357,2.0371,-0.3149,-0.4434,,0.0357
2409,-0.0448,2.0114,-0.3277,-0.4434,,0.0448
2410,-0.111,1.96,-0.302,-0.4563,,0.111
2411,-0.1477,1.9086,-0.2892,-0.4948,,0.1477
2412,-0.207,1.8701,-0.302,-0.4948,,0.207
2413,-0.1413,1.8186,-0.302,-0.482,,0.1413
2414,-0.1014,1.7801,-0.302,-0.4948,,0.1014
2415,0.0137,1.7672,-0.302,-0.5077,,0.0137
2416,0.0239,1.7415,-0.3149,-0.5077,,0.0239
2417,0.0277,1.703,-0.3277,-0.5077,,0.0277
2418,0.0445,1.6901,-0.3277,-0.4948,,0.0445
2419,0.065,1.6644,-0.3534,-0.4948,,0.065
2420,0.0621,1.6516,-0.3277,-0.4563,,0.0621
2421,0.0728,1.6259,-0.3406,-0.482,,0.0728
2422,0.0424,1.5873,-0.3277,-0.4563,,0.0424
2423,-0.0042,1.5616,-0.3277,-0.4691,,0.0042
2424,-0.0482,1.523,-0.3406,-0.482,,0.0482
2425,-0.0574,1.4845,-0.3277,-0.4691,,0.0574
2426,-0.0786,1.4588,-0.3277,-0.4434,,0.0786
2427,-0.0823,1.4459,-0.3277,-0.482,,0.0823
2428,-0.0549,1.4459,-0.3406,-0.4434,,0.0549
2429,-0.0118,1.4459,-0.3277,-0.4434,,0.0118
2430,0.0236,1.4331,-0.3277,-0.4177,,0.0236
2431,0.0374,1.4202,-0.3277,-0.4177,,0.0374
2432,-0.0119,1.3945,-0.3406,-0.4177,,0.0119
2433,-0.0848,1.3302,-0.3277,-0.4049,,0.0848
2434,-0.0598,1.2531,-0.3149,-0.4306,,0.0598
2435,0.0045,1.2017,-0.3149,-0.392,,0.0045
2436,-0.0108,1.1375,-0.3149,-0.4177,,0.0108
2437,-0.0261,1.0603,-0.3149,-0.4306,,0.0261
2438,-0.064,1.0218,-0.302,-0.4177,,0.064
2439,-0.0724,0.9447,-0.302,-0.4306,,0.0724
2440,-0.0699,0.8933,-0.302,-0.4563,,0.0699
2441,-0.111,0.829,-0.2763,-0.4563,,0.111
2442,-0.0343,0.7776,-0.2763,-0.482,,0.0343
2443,-0.0145,0.7519,-0.2763,-0.4948,,0.0145
2444,-0.0038,0.6876,-0.2635,-0.5334,,0.0038
2445,-0.0979,0.6491,-0.2506,-0.6105,,0.0979
2446,-0.1222,0.5976,-0.2506,-0.6362,,0.1222
2447,-0.1204,0.5591,-0.2378,-0.7005,,0.1204
2448,-0.0969,0.5205,-0.2249,-0.7776,,0.0969
2449,0.0543,0.482,-0.2249,-0.8418,,0.0543
2450,0.177,0.4434,-0.2121,-0.919,,0.177
2451,0.3111,0.4049,-0.1864,-1.0346,,0.3111
2452,0.3591,0.3792,-0.1478,-1.0989,,0.3591
2453,0.2841,0.3792,-0.135,-1.1889,,0.2841
2454,0.1395,0.302,-0.1092,-1.2917,,0.1395
2455,-0.0078,0.2635,-0.0835,-1.3817,,0.0078
2456,-0.0988,0.2249,-0.0321,-1.4845,,0.0988
2457,-0.229,0.1992,0.0064,-1.5873,,0.229
2458,-0.2266,0.1478,0.0578,-1.7158,,0.2266
2459,-0.2276,0.135,0.0964,-1.8572,,0.2276
2460,-0.1726,0.1221,0.1221,-1.9986,,0.1726
2461,-0.1535,0.135,0.1607,-2.1528,,0.1535
2462,-0.1426,0.1607,0.2121,-2.2813,,0.1426
2463,-0.0899,0.1607,0.2249,-2.4356,,0.0899
2464,-0.123,0.1992,0.2506,-2.5384,,0.123
2465,-0.128,0.2121,0.2763,-2.6412,,0.128
2466,-0.0812,0.2378,0.2892,-2.7183,,0.0812
2467,-0.0111,0.2506,0.2892,-2.8083,,0.0111
2468,-0.0214,0.2763,0.3149,-2.834,,0.0214
2469,0.0592,0.2763,0.3149,-2.8854,,0.0592
2470,0.1146,0.2763,0.3277,-2.8597,,0.1146
2471,0.1598,0.2763,0.3406,-2.8469,,0.1598
2472,0.1107,0.2506,0.3406,-2.8469,,0.1107
2473,0.0671,0.2249,0.3663,-2.8212,,0.0671
2474,0.0571,0.1864,0.4049,-2.8212,,0.0571
2475,0.0599,0.1221,0.4306,-2.7697,,0.0599
2476,-0.0267,0.045,0.4434,-2.7312,,0.0267
2477,-0.0269,-0.0321,0.482,-2.7312,,0.0269
2478,0.0415,-0.1221,0.4948,-2.7055,,0.0415
2479,0.1608,-0.2763,0.5334,-2.6669,,0.1608
2480,0.2118,-0.4563,0.5591,-2.5898,,0.2118
2481,0.241,-0.6362,0.5719,-2.5127,,0.241
2482,0.1411,-0.8418,0.5976,-2.4227,,0.1411
2483,0.1105,-1.0732,0.6491,-2.3713,,0.1105
2484,0.0292,-1.3174,0.6619,-2.2556,,0.0292
2485,-0.0541,-1.613,0.6876,-2.2042,,0.0541
2486,-0.065,-1.8958,0.7005,-2.1143,,0.065
2487,0.0664,-2.1914,0.7262,-2.0371,,0.0664
2488,0.1942,-2.487,0.7262,-1.9472,,0.1942
2489,0.2424,-2.7697,0.7519,-1.8701,,0.2424
2490,0.1251,-3.0654,0.7519,-1.7801,,0.1251
2491,0.0456,-3.3224,0.7262,-1.6773,,0.0456
2492,-0.2054,-3.5409,0.7133,-1.6002,,0.2054
2493,-0.4982,-3.6823,0.7005,-1.523,,0.4982
2494,-0.5853,-3.8622,0.6491,-1.4459,,0.5853
2495,-0.385,-3.9393,0.6105,-1.3817,,0.385
2496,-0.281,-3.9779,0.5848,-1.3174,,0.281
2497,-0.1855,-3.9008,0.5462,-1.266,,0.1855
2498,-0.0959,-3.798,0.5077,-1.2403,,0.0959
2499,0.0468,-3.6052,0.4691,-1.2403,,0.0468
2500,0.2235,-3.361,0.4434,-1.2403,,0.2235
2501,0.3139,-3.0782,0.4177,-1.266,,0.3139
2502,0.4343,-2.7826,0.4049,-1.2788,,0.4343
2503,0.4267,-2.487,0.4049,-1.2788,,0.4267
2504,0.3957,-2.1785,0.4177,-1.2917,,0.3957
2505,0.3627,-1.8572,0.4306,-1.3045,,0.3627
2506,0.2859,-1.5616,0.4563,-1.2917,,0.2859
2507,0.113,-1.3045,0.482,-1.266,,0.113
2508,-0.21,-1.0346,0.5462,-1.266,,0.21
2509,-0.1292,-0.8161,0.5848,-1.2403,,0.1292
2510,-0.1145,-0.6234,0.6491,-1.1889,,0.1145
2511,-0.1017,-0.4306,0.6876,-1.176,,0.1017
2512,-0.1266,-0.2763,0.7647,-1.1632,,0.1266
2513,-0.2187,-0.1221,0.7904,-1.1246,,0.2187
2514,-0.2762,-0.0064,0.8418,-1.1375,,0.2762
2515,-0.29,0.135,0.8804,-1.1246,,0.29
2516,-0.2183,0.2378,0.8933,-1.1632,,0.2183
2517,-0.211,0.3534,0.9061,-1.1889,,0.211
2518,-0.2265,0.4563,0.919,-1.2017,,0.2265
2519,-0.2057,0.5591,0.9061,-1.2403,,0.2057
2520,-0.0512,0.6362,0.919,-1.2917,,0.0512
2521,0.249,0.7519,0.919,-1.356,,0.249
2522,0.6079,0.829,0.8933,-1.3817,,0.6079
2523,0.6688,0.9318,0.8804,-1.4202,,0.6688
2524,0.6087,1.0089,0.8804,-1.4459,,0.6087
2525,0.4953,1.0989,0.8676,-1.4845,,0.4953
2526,0.3349,1.1632,0.8418,-1.4588,,0.3349
2527,0.1697,1.2403,0.829,-1.4716,,0.1697
2528,0.0508,1.3302,0.7904,-1.5102,,0.0508
2529,-0.0193,1.4202,0.7647,-1.523,,0.0193
2530,-0.0779,1.5102,0.7262,-1.5359,,0.0779
2531,-0.1525,1.6002,0.6748,-1.5102,,0.1525
2532,-0.2101,1.6901,0.6234,-1.4973,,0.2101
2533,-0.213,1.7672,0.5976,-1.4716,,0.213
2534,-0.1712,1.8444,0.5591,-1.4716,,0.1712
2535,-0.1337,1.9086,0.5077,-1.5744,,0.1337
2536,-0.1767,1.9857,0.4691,-1.6773,,0.1767
2537,-0.0646,2.1014,0.392,-1.8444,,0.0646
2538,0.0126,2.2428,0.3277,-2.0243,,0.0126
2539,0.0489,2.3842,0.2506,-2.2299,,0.0489
2540,0.0746,2.5255,0.2121,-2.397,,0.0746
2541,-0.0092,2.6541,0.1478,-2.5641,,0.0092
2542,-0.0156,2.7826,0.1221,-2.6155,,0.0156
2543,0.1539,2.8597,0.0835,-2.6669,,0.1539
2544,0.1452,2.9368,0.0964,-2.6284,,0.1452
2545,0.1885,2.9882,0.0578,-2.5641,,0.1885
2546,0.0669,3.0397,0.0321,-2.5127,,0.0669
2547,-0.1658,3.0782,-0.0064,-2.4741,,0.1658
2548,-0.3632,3.1296,-0.0321,-2.4356,,0.3632
2549,-0.5654,3.1553,-0.045,-2.397,,0.5654
2550,-0.6913,3.1682,-0.0707,-2.397,,0.6913
2551,-0.5925,3.1682,-0.0578,-2.3713,,0.5925
2552,-0.2753,3.181,-0.0707,-2.397,,0.2753
2553,0.0171,3.1939,-0.0707,-2.3842,,0.0171
2554,0.4404,3.1296,-0.0964,-2.3842,,0.4404
2555,0.6648,3.1039,-0.0835,-2.3585,,0.6648
2556,0.5167,3.0525,-0.0707,-2.3328,,0.5167
2557,0.25,3.0011,-0.0578,-2.2813,,0.25
2558,0.0101,2.9497,-0.0707,-2.2428,,0.0101
2559,-0.0263,2.8983,-0.0578,-2.2299,,0.0263
2560,-0.1464,2.8083,-0.0321,-2.1528,,0.1464
2561,-0.155,2.7312,-0.0193,-2.1014,,0.155
2562,0.1214,2.6669,-0.0193,-2.05,,0.1214
2563,0.1649,2.6155,-0.0193,-1.9986,,0.1649
2564,0.1324,2.5255,-0.0064,-1.9215,,0.1324
2565,0.039,2.4356,0.0064,-1.8572,,0.039
2566,-0.0086,2.3713,0.0193,-1.7672,,0.0086
2567,0.0407,2.307,0.0193,-1.6901,,0.0407
2568,0.1416,2.2556,0.0321,-1.6387,,0.1416
2569,0.2141,2.2042,0.045,-1.5616,,0.2141
2570,0.0126,2.1657,0.045,-1.5102,,0.0126
2571,-0.075,2.1014,0.0578,-1.4202,,0.075
2572,-0.1819,2.05,0.0578,-1.3688,,0.1819
2573,-0.09,1.9857,0.0578,-1.2917,,0.09
2574,0.1695,1.96,0.0707,-1.2403,,0.1695
2575,0.3414,1.9086,0.0707,-1.1889,,0.3414
2576,0.1581,1.8829,0.0835,-1.1246,,0.1581
2577,-0.215,1.8572,0.0964,-1.1118,,0.215
2578,-0.4225,1.8315,0.0707,-1.0475,,0.4225
2579,-0.4771,1.8058,0.0835,-1.0346,,0.4771
2580,-0.4759,1.7544,0.0964,-1.0089,,0.4759
2581,-0.4785,1.7158,0.0835,-0.9575,,0.4785
2582,-0.4668,1.6773,0.0964,-0.9575,,0.4668
2583,-0.2404,1.6387,0.1092,-0.919,,0.2404
2584,0.2405,1.6002,0.1092,-0.8933,,0.2405
2585,0.9282,1.5744,0.1092,-0.8804,,0.9282
2586,1.1472,1.5359,0.1092,-0.8676,,1.1472
2587,1.0616,1.5102,0.0964,-0.8418,,1.0616
2588,0.6158,1.4588,0.1092,-0.829,,0.6158
2589,0.2962,1.4202,0.1092,-0.8161,,0.2962
2590,-0.0961,1.3817,0.1092,-0.8033,,0.0961
2591,-0.1661,1.3688,0.1092,-0.7776,,0.1661
2592,-0.079,1.3431,0.1092,-0.7776,,0.079
2593,-0.0335,1.3688,0.0964,-0.7776,,0.0335
2594,-0.0453,1.356,0.0835,-0.7647,,0.0453
2595,-0.0976,1.3431,0.1092,-0.7262,,0.0976
2596,-0.1211,1.3431,0.1092,-0.7133,,0.1211
2597,-0.1818,1.3302,0.1092,-0.6748,,0.1818
2598,-0.3,1.3045,0.1221,-0.6619,,0.3
2599,-0.3692,1.2788,0.135,-0.6105,,0.3692
2600,-0.2457,1.2403,0.1221,-0.5848,,0.2457
2601,0.0188,1.1889,0.1221,-0.5205,,0.0188
2602,0.1878,1.1632,0.1221,-0.482,,0.1878
2603,0.4082,1.176,0.0835,-0.4049,,0.4082
2604,0.5386,1.1375,0.0835,-0.302,,0.5386
2605,0.3744,1.1246,0.0707,-0.2892,,0.3744
2606,0.2392,1.0989,0.0835,-0.2506,,0.2392
2607,0.2847,1.086,0.0707,-0.1478,,0.2847
2608,0.1895,1.0089,0.0578,-0.0964,,0.1895
2609,0.1138,0.9704,0.0321,-0.0578,,0.1138
2610,0.0691,0.9061,0.0193,-0.0193,,0.0691
2611,-0.0104,0.8418,0.0321,0.0321,,0.0104
2612,-0.1258,0.8033,0.0321,0.0964,,0.1258
2613,-0.3018,0.7776,0.0193,0.1607,,0.3018
2614,-0.454,0.7262,0.0064,0.2121,,0.454
2615,-0.3951,0.6876,-0.0193,0.2506,,0.3951
2616,-0.3952,0.6491,-0.045,0.302,,0.3952
2617,-0.3358,0.6234,-0.0707,0.3534,,0.3358
2618,-0.2127,0.5848,-0.0964,0.4049,,0.2127
2619,-0.1376,0.5334,-0.1092,0.4563,,0.1376
2620,-0.0844,0.482,-0.135,0.4948,,0.0844
2621,0.1711,0.4434,-0.135,0.4948,,0.1711
2622,0.4634,0.4177,-0.1221,0.5205,,0.4634
2623,0.5994,0.3792,-0.135,0.5205,,0.5994
2624,0.493,0.3277,-0.1607,0.5848,,0.493
2625,0.246,0.2635,-0.1607,0.5848,,0.246
2626,0.0361,0.2378,-0.1478,0.5591,,0.0361
2627,-0.125,0.1735,-0.135,0.5205,,0.125
2628,-0.1273,0.135,-0.135,0.5334,,0.1273
2629,-0.0686,0.0835,-0.1221,0.5334,,0.0686
2630,0.042,0.0193,-0.135,0.5334,,0.042
2631,0.1076,-0.0064,-0.1221,0.5077,,0.1076
2632,0.1262,-0.0321,-0.1221,0.5077,,0.1262
2633,0.1475,-0.0578,-0.0964,0.4948,,0.1475
2634,0.0891,-0.0835,-0.1092,0.4434,,0.0891
2635,-0.0259,-0.0964,-0.1092,0.4177,,0.0259
2636,-0.1375,-0.1221,-0.0835,0.3663,,0.1375
2637,-0.3228,-0.1221,-0.045,0.3277,,0.3228
2638,-0.2588,-0.0964,-0.0193,0.2506,,0.2588
2639,-0.1346,-0.0964,-0.0064,0.1864,,0.1346
2640,-0.0034,-0.0964,-0.0064,0.0964,,0.0034
2641,0.0566,-0.0835,-0.0064,-0.0321,,0.0566
2642,0.0162,-0.0578,0.0064,-0.1221,,0.0162
2643,-0.017,-0.0193,0.0321,-0.1992,,0.017
2644,-0.0757,0.0193,0.045,-0.3534,,0.0757
2645,-0.2334,0.0578,0.045,-0.4563,,0.2334
2646,-0.3971,0.1092,0.0321,-0.5848,,0.3971
2647,-0.2989,0.1607,0.0321,-0.6876,,0.2989
2648,-0.4496,0.2249,0.0321,-0.8161,,0.4496
2649,-0.5565,0.302,0.0193,-0.9575,,0.5565
2650,-0.4612,0.3663,0.0064,-1.086,,0.4612
2651,-0.2613,0.4434,-0.0193,-1.2146,,0.2613
2652,0.1685,0.5077,-0.0321,-1.3431,,0.1685
2653,0.6125,0.5848,-0.0707,-1.4716,,0.6125
2654,0.8254,0.6619,-0.1092,-1.5744,,0.8254
2655,0.7985,0.739,-0.1478,-1.6773,,0.7985
2656,0.7512,0.829,-0.1864,-1.7544,,0.7512
2657,0.5971,0.919,-0.2378,-1.8444,,0.5971
2658,0.2226,1.0089,-0.2892,-1.9215,,0.2226
2659,0.0617,1.1118,-0.3277,-1.9729,,0.0617
2660,-0.3158,1.2017,-0.4049,-2.0757,,0.3158
2661,-0.399,1.3302,-0.4434,-2.14,,0.399
2662,-0.2127,1.4459,-0.482,-2.2685,,0.2127
2663,-0.2913,1.613,-0.5205,-2.3842,,0.2913
2664,-0.4634,1.7544,-0.5462,-2.5127,,0.4634
2665,-0.2434,1.9215,-0.5591,-2.6669,,0.2434
2666,0.09,2.0886,-0.5591,-2.7955,,0.09
2667,0.3393,2.2556,-0.5848,-2.9368,,0.3393
2668,0.4518,2.4356,-0.5719,-3.0268,,0.4518
2669,0.2563,2.6027,-0.5719,-3.0782,,0.2563
2670,0.0475,2.744,-0.5591,-3.0911,,0.0475
2671,-0.2342,2.8469,-0.5205,-3.0397,,0.2342
2672,-0.1288,2.9368,-0.5205,-2.9111,,0.1288
2673,0.0889,3.0011,-0.482,-2.7183,,0.0889
2674,0.1828,3.0397,-0.4563,-2.4484,,0.1828
2675,0.1565,3.0397,-0.4434,-2.14,,0.1565
2676,0.1118,2.9882,-0.4306,-1.7929,,0.1118
2677,-0.0903,2.9497,-0.4177,-1.5102,,0.0903
2678,-0.3185,2.9111,-0.3792,-1.2403,,0.3185
2679,-0.3901,2.8469,-0.3792,-1.0218,,0.3901
2680,-0.5836,2.7312,-0.3534,-0.829,,0.5836
2681,-0.5994,2.6284,-0.3149,-0.7005,,0.5994
2682,-0.0607,2.4998,-0.2763,-0.5848,,0.0607
2683,0.4546,2.397,-0.2249,-0.5205,,0.4546
2684,0.8312,2.2428,-0.1478,-0.5077,,0.8312
2685,0.9054,2.1143,-0.0707,-0.5077,,0.9054
2686,0.2353,1.9729,0.0193,-0.5719,,0.2353
2687,-0.5898,1.8572,0.1092,-0.6362,,0.5898
2688,-0.9548,1.7415,0.2249,-0.6619,,0.9548
2689,-1.1469,1.6002,0.3534,-0.6491,,1.1469
2690,-0.7717,1.4845,0.4563,-0.6619,,0.7717
2691,0.0152,1.3431,0.5719,-0.6105,,0.0152
2692,0.6525,1.2017,0.7005,-0.6234,,0.6525
2693,0.5621,1.0603,0.8161,-0.5591,,0.5621
2694,0.3207,0.8933,0.919,-0.5976,,0.3207
2695,-0.7669,0.7133,1.0218,-0.6234,,0.7669
2696,-1.7577,0.5077,1.1118,-0.7262,,1.7577
2697,-1.7716,0.2763,1.2017,-0.8418,,1.7716
2698,-0.5642,0.0578,1.2917,-1.0346,,0.5642
2699,0.7858,-0.1735,1.3302,-1.2531,,0.7858
2700,1.7297,-0.4049,1.3688,-1.4973,,1.7297
2701,2.0566,-0.6748,1.3817,-1.7287,,2.0566
2702,1.2805,-0.8804,1.3817,-1.9215,,1.2805
2703,-1.2933,-1.0989,1.3431,-2.0757,,1.2933
2704,-2.4001,-1.4074,1.3174,-2.1657,,2.4001
2705,-2.4001,-1.6002,1.2403,-2.2299,,2.4001
2706,-2.4001,-1.9215,1.2017,-2.2299,,2.4001
2707,-1.2359,-2.2299,1.1246,-2.2685,,1.2359
2708,0.2077,-2.577,1.0475,-2.2556,,0.2077
2709,1.2145,-2.7697,0.9318,-2.2171,,1.2145
2710,2.4,-2.9497,0.7904,-2.1143,,2.4
2711,2.4,-3.1682,0.6876,-2.0886,,2.4
2712,1.8127,-3.361,0.5848,-2.0243,,1.8127
2713,1.4872,-3.4895,0.5205,-1.9857,,1.4872
2714,0.9561,-3.618,0.4691,-1.8829,,0.9561
2715,-0.2599,-3.6951,0.4177,-1.8058,,0.2599
2716,-0.6033,-3.7465,0.4049,-1.7415,,0.6033
2717,-0.8786,-3.798,0.392,-1.6644,,0.8786
2718,-0.3012,-3.8108,0.3663,-1.6002,,0.3012
2719,0.448,-3.7723,0.3663,-1.5359,,0.448
2720,-0.0394,-3.6823,0.3792,-1.5359,,0.0394
2721,0.3381,-3.5666,0.392,-1.5359,,0.3381
2722,0.9149,-3.4252,0.4306,-1.5873,,0.9149
2723,1.0011,-3.2581,0.4691,-1.6644,,1.0011
2724,1.5339,-3.0654,0.5077,-1.703,,1.5339
2725,1.5318,-2.8983,0.5976,-1.7544,,1.5318
2726,1.681,-2.7055,0.6491,-1.7801,,1.681
2727,1.7175,-2.5127,0.7133,-1.8058,,1.7175
2728,0.9328,-2.3199,0.7776,-1.8186,,0.9328
2729,0.0013,-2.1528,0.829,-1.8058,,0.0013
2730,-0.382,-1.96,0.8547,-1.7672,,0.382
2731,-0.3626,-1.7929,0.8933,-1.7415,,0.3626
2732,-0.4419,-1.5744,0.9061,-1.7672,,0.4419
2733,-0.41,-1.3817,0.919,-1.7672,,0.41
2734,-0.4063,-1.1889,0.8933,-1.7929,,0.4063
2735,-0.0891,-0.9961,0.8933,-1.8186,,0.0891
2736,-0.0789,-0.8033,0.8676,-1.8572,,0.0789
2737,-0.3316,-0.6234,0.8418,-1.8958,,0.3316
2738,-1.1324,-0.4434,0.8161,-1.9343,,1.1324
2739,-1.4578,-0.2763,0.7776,-2.05,,1.4578
2740,-2.4001,-0.135,0.7262,-2.0757,,2.4001
2741,-2.2652,-0.0064,0.7005,-2.1271,,2.2652
2742,-1.8823,0.1092,0.6619,-2.1528,,1.8823
2743,-1.0261,0.1864,0.6234,-2.1785,,1.0261
2744,0.9612,0.2635,0.5848,-2.1657,,0.9612
2745,1.7155,0.3149,0.5848,-2.1657,,1.7155
2746,1.9202,0.3663,0.5848,-2.1528,,1.9202
2747,1.8241,0.4049,0.5976,-2.1271,,1.8241
2748,0.8436,0.4434,0.5848,-2.1271,,0.8436
2749,0.2722,0.482,0.5719,-2.1143,,0.2722
2750,0.3044,0.5205,0.5976,-2.0886,,0.3044
2751,0.6706,0.5719,0.6105,-2.0886,,0.6706
2752,0.9002,0.6105,0.6234,-2.0886,,0.9002
2753,0.5948,0.6491,0.6362,-2.0757,,0.5948
2754,0.087,0.6876,0.6491,-2.0757,,0.087
2755,-0.1141,0.739,0.6619,-2.0371,,0.1141
2756,-0.1906,0.7904,0.6619,-2.0243,,0.1906
2757,-0.1797,0.8161,0.6748,-1.9857,,0.1797
2758,-0.0727,0.8547,0.6748,-1.9729,,0.0727
2759,-0.0642,0.8804,0.6748,-1.96,,0.0642
2760,-0.3492,0.919,0.6876,-1.9343,,0.3492
2761,-0.9085,0.9575,0.6876,-1.9215,,0.9085
2762,-1.6298,0.9832,0.6876,-1.8958,,1.6298
2763,-1.526,1.0346,0.6619,-1.8958,,1.526
2764,-0.8635,1.0218,0.6619,-1.8958,,0.8635
2765,-0.6311,1.0346,0.6491,-1.9215,,0.6311
2766,0.0277,1.0732,0.6362,-1.8701,,0.0277
2767,0.5935,1.0732,0.6234,-1.8958,,0.5935
2768,0.9547,1.086,0.6105,-1.8701,,0.9547
2769,1.3362,1.086,0.5976,-1.8829,,1.3362
2770,1.5598,1.0989,0.5719,-1.8958,,1.5598
2771,1.5051,1.1118,0.5462,-1.8829,,1.5051
2772,1.0861,1.1246,0.5334,-1.8829,,1.0861
2773,0.4588,1.1503,0.5205,-1.8701,,0.4588
2774,0.0979,1.1632,0.482,-1.8701,,0.0979
2775,-1.1736,1.1632,0.4691,-1.8572,,1.1736
2776,-1.6485,1.2017,0.4434,-1.8444,,1.6485
2777,-1.5871,1.2017,0.4306,-1.8572,,1.5871
2778,-0.6078,1.266,0.4049,-1.8315,,0.6078
2779,0.4357,1.2531,0.3663,-1.8572,,0.4357
2780,1.3321,1.266,0.3534,-1.8186,,1.3321
2781,1.2363,1.2917,0.3277,-1.7672,,1.2363
2782,0.8432,1.3174,0.302,-1.7801,,0.8432
